#Parameters = {L=40; e=0.035; h=1.6; i=0.5; l1=7.6530612244898; ls=100; wl=0.2; ws=30}
#"Frequency / GHz"	"S1,1 (1) [Magnitude]"
#----------------------------------------
0.0000000000000	-0.036905223534167
0.0040000001899898	-0.036876964555758
0.0080000003799796	-0.036790084144527
0.012000000104308	-0.036646590520820
0.016000000759959	-0.036446365104439
0.019999999552965	-0.036188722215981
0.024000000208616	-0.035875530627447
0.028000000864267	-0.035508612362967
0.032000001519918	-0.035088707262892
0.035999998450279	-0.034615990881413
0.039999999105930	-0.034092677408915
0.043999999761581	-0.033521462203036
0.048000000417233	-0.032901360262955
0.052000001072884	-0.032237590731023
0.056000001728535	-0.031529622591989
0.059999998658895	-0.030781047153515
0.064000003039837	-0.029994389129761
0.068000003695488	-0.029171110606315
0.071999996900558	-0.028314720394239
0.075999997556210	-0.027427151951677
0.079999998211861	-0.026511886577895
0.083999998867512	-0.025570812275903
0.087999999523163	-0.024608422372930
0.092000000178814	-0.023625034761952
0.096000000834465	-0.022627709159914
0.10000000149012	-0.021616260371939
0.10400000214577	-0.020594088562455
0.10800000280142	-0.019565693995561
0.11200000345707	-0.018534509540888
0.11599999666214	-0.017501915421509
0.11999999731779	-0.016472931403798
0.12399999797344	-0.015448971495183
0.12800000607967	-0.014435622964997
0.13199999928474	-0.013434319393633
0.13600000739098	-0.012450219887199
0.14000000059605	-0.011482230506787
0.14399999380112	-0.010536043726004
0.14800000190735	-0.0096153337642433
0.15199999511242	-0.0087232833155449
0.15600000321865	-0.0078605054298062
0.15999999642372	-0.0070318622433907
0.16400000452995	-0.0062365048072123
0.16799999773502	-0.0054809186964635
0.17200000584126	-0.0047653862990085
0.17599999904633	-0.0040934273006242
0.18000000715256	-0.0034669421090738
0.18400000035763	-0.0028869962989906
0.18799999356270	-0.0023550874279483
0.19200000166893	-0.0018734243666969
0.19599999487400	-0.0014456641043833
0.20000000298023	-0.0010704787725391
0.20399999618530	-0.00074914099278894
0.20800000429153	-0.00048451920005754
0.21199999749660	-0.00027697725871762
0.21600000560284	-0.00012583847804675
0.21999999880791	-3.4225888792042e-05
0.22400000691414	-4.9251599256617e-07
0.22800000011921	-2.4710928377914e-05
0.23199999332428	-0.00010901012697355
0.23600000143051	-0.00024990667957263
0.23999999463558	-0.00045119951601998
0.24400000274181	-0.00070900010984046
0.24799999594688	-0.0010229366646071
0.25200000405312	-0.0013938845617431
0.25600001215935	-0.0018210274606096
0.25999999046326	-0.0023006176167785
0.26399999856949	-0.0028340353494596
0.26800000667572	-0.0034170070901434
0.27200001478195	-0.0040503449311349
0.27599999308586	-0.0047319039685595
0.28000000119209	-0.0054579502199709
0.28400000929832	-0.0062277437527845
0.28799998760223	-0.0070396646516172
0.29199999570847	-0.0078893949208937
0.29600000381470	-0.0087757889202452
0.30000001192093	-0.0096954284327253
0.30399999022484	-0.010645518145289
0.30799999833107	-0.011625959158252
0.31200000643730	-0.012628991044211
0.31600001454353	-0.013656055552155
0.31999999284744	-0.014700851427389
0.32400000095367	-0.015763639071301
0.32800000905991	-0.016836144630353
0.33199998736382	-0.017920499384688
0.33599999547005	-0.019010137709244
0.34000000357628	-0.020102491981980
0.34400001168251	-0.021194619512854
0.34799998998642	-0.022283303168570
0.35199999809265	-0.023364598741419
0.35600000619888	-0.024435150386228
0.36000001430511	-0.025491480776383
0.36399999260902	-0.026531263619233
0.36800000071526	-0.027549925952785
0.37200000882149	-0.028546090064441
0.37599998712540	-0.029515472027439
0.37999999523163	-0.030455731773816
0.38400000333786	-0.031363186213262
0.38800001144409	-0.032235275077166
0.39199998974800	-0.033069467190149
0.39599999785423	-0.033861805492300
0.40000000596046	-0.034612073002229
0.40400001406670	-0.035316372219928
0.40799999237061	-0.035973120631394
0.41200000047684	-0.036579438331507
0.41600000858307	-0.037134451659022
0.41999998688698	-0.037636697024583
0.42399999499321	-0.038081653130684
0.42800000309944	-0.038470464377768
0.43200001120567	-0.038801324084780
0.43599998950958	-0.039074488827971
0.43999999761581	-0.039286306446877
0.44400000572205	-0.039438378710771
0.44800001382828	-0.039528875391345
0.45199999213219	-0.039557355517756
0.45600000023842	-0.039524478042281
0.46000000834465	-0.039429884329072
0.46399998664856	-0.039274698813838
0.46799999475479	-0.039057973017767
0.47200000286102	-0.038781195041680
0.47600001096725	-0.038445789739230
0.47999998927116	-0.038051427484417
0.48399999737740	-0.037600106212637
0.48800000548363	-0.037093288838600
0.49200001358986	-0.036532122295064
0.49599999189377	-0.035919011910864
0.50000000000000	-0.035255795351234
0.50400000810623	-0.034542883566999
0.50800001621246	-0.033785889573080
0.51200002431870	-0.032984506792919
0.51599997282028	-0.032142233321707
0.51999998092651	-0.031262763159833
0.52399998903275	-0.030347526582295
0.52799999713898	-0.029398825274406
0.53200000524521	-0.028421722123794
0.53600001335144	-0.027418562745790
0.54000002145767	-0.026393511317224
0.54400002956390	-0.025348265067566
0.54799997806549	-0.024287858777077
0.55199998617172	-0.023213594961274
0.55599999427795	-0.022132047048852
0.56000000238419	-0.021044848435452
0.56400001049042	-0.019956468887595
0.56800001859665	-0.018869314676868
0.57200002670288	-0.017789095786566
0.57599997520447	-0.016716951850702
0.57999998331070	-0.015661003941618
0.58399999141693	-0.014619215114779
0.58799999952316	-0.013599242676773
0.59200000762939	-0.012603829460909
0.59600001573563	-0.011635730014055
0.60000002384186	-0.010698291496676
0.60399997234344	-0.0097967264227895
0.60799998044968	-0.0089303220187285
0.61199998855591	-0.0081075291296364
0.61599999666214	-0.0073287108136987
0.62000000476837	-0.0065966606939846
0.62400001287460	-0.0059149999852702
0.62800002098083	-0.0052851827387359
0.63200002908707	-0.0047133835681634
0.63599997758865	-0.0041975663384382
0.63999998569489	-0.0037424530473327
0.64399999380112	-0.0033483245783844
0.64800000190735	-0.0030208315269680
0.65200001001358	-0.0027585634244691
0.65600001811981	-0.0025640217311915
0.66000002622604	-0.0024376113179830
0.66399997472763	-0.0023836631653512
0.66799998283386	-0.0023995361120123
0.67199999094009	-0.0024898164481758
0.67599999904633	-0.0026512824659975
0.68000000715256	-0.0028867576521346
0.68400001525879	-0.0031954488866577
0.68800002336502	-0.0035784664085739
0.69199997186661	-0.0040349316124785
0.69599997997284	-0.0045638389009858
0.69999998807907	-0.0051654590220527
0.70399999618530	-0.0058405301203559
0.70800000429153	-0.0065838032196196
0.71200001239777	-0.0073973896846891
0.71600002050400	-0.0082809463858810
0.72000002861023	-0.0092292212227093
0.72399997711182	-0.010241907425924
0.72799998521805	-0.011317561345715
0.73199999332428	-0.012454641409862
0.73600000143051	-0.013649551999779
0.74000000953674	-0.014899143765662
0.74400001764297	-0.016202326231416
0.74800002574921	-0.017556199711555
0.75199997425079	-0.018956844125049
0.75599998235703	-0.020401892100250
0.75999999046326	-0.021887754327069
0.76399999856949	-0.023409058782736
0.76800000667572	-0.024966823550738
0.77200001478195	-0.026553375250637
0.77600002288818	-0.028167047852367
0.77999997138977	-0.029801856499080
0.78399997949600	-0.031457001199082
0.78799998760223	-0.033127673316973
0.79199999570847	-0.034808617116114
0.79600000381470	-0.036495924568853
0.80000001192093	-0.038186549567207
0.80400002002716	-0.039876992857050
0.80800002813339	-0.041561777185588
0.81199997663498	-0.043237464781554
0.81599998474121	-0.044900403727491
0.81999999284744	-0.046546050488912
0.82400000095367	-0.048169890543756
0.82800000905991	-0.049770729983788
0.83200001716614	-0.051342114538276
0.83600002527237	-0.052882386870889
0.83999997377396	-0.054385748877304
0.84399998188019	-0.055851164754723
0.84799998998642	-0.057273477440537
0.85199999809265	-0.058649682098090
0.85600000619888	-0.059978171515860
0.86000001430511	-0.061255419497024
0.86400002241135	-0.062478263083432
0.86799997091293	-0.063644775658649
0.87199997901917	-0.064752092343375
0.87599998712540	-0.065798442071165
0.87999999523163	-0.066782446756889
0.88400000333786	-0.067701195093437
0.88800001144409	-0.068555066190067
0.89200001955032	-0.069341274742348
0.89600002765656	-0.070059655419100
0.89999997615814	-0.070709923588740
0.90399998426437	-0.071289346916081
0.90799999237061	-0.071800044762318
0.91200000047684	-0.072242012973838
0.91600000858307	-0.072614833218479
0.92000001668930	-0.072918688250991
0.92400002479553	-0.073154215604758
0.92799997329712	-0.073324188183069
0.93199998140335	-0.073428180690873
0.93599998950958	-0.073469370908096
0.93999999761581	-0.073448009543278
0.94400000572205	-0.073368264729604
0.94800001382828	-0.073229176350591
0.95200002193451	-0.073037433767963
0.95599997043610	-0.072792965215148
0.95999997854233	-0.072499723366741
0.96399998664856	-0.072161858035355
0.96799999475479	-0.071781568289787
0.97200000286102	-0.071363396755255
0.97600001096725	-0.070910549690080
0.98000001907349	-0.070427735623158
0.98400002717972	-0.069919515504115
0.98799997568130	-0.069389804384802
0.99199998378754	-0.068843693572155
0.99599999189377	-0.068285994796670
1.0000000000000	-0.067720630197619
1.0039999485016	-0.067154046613479
1.0080000162125	-0.066590386469893
1.0119999647141	-0.066035154204316
1.0160000324249	-0.065493700619383
1.0199999809265	-0.064972386161323
1.0240000486374	-0.064474201531951
1.0279999971390	-0.064006657786811
1.0319999456406	-0.063574875406321
1.0360000133514	-0.063184047125814
1.0399999618530	-0.062839442065458
1.0440000295639	-0.062548421520523
1.0479999780655	-0.062313865247495
1.0520000457764	-0.062142662786830
1.0559999942780	-0.062039355044781
1.0599999427795	-0.062010514426140
1.0640000104904	-0.062059632637289
1.0679999589920	-0.062193362698520
1.0720000267029	-0.062416017483916
1.0759999752045	-0.062731985840337
1.0800000429153	-0.063145987152291
1.0839999914169	-0.063663448011982
1.0880000591278	-0.064288528690627
1.0920000076294	-0.065024421219948
1.0959999561310	-0.065876374160688
1.1000000238419	-0.066847504539156
1.1039999723434	-0.067941155506805
1.1080000400543	-0.069161535026293
1.1119999885559	-0.070512410070057
1.1160000562668	-0.071994894318753
1.1200000047684	-0.073612678561643
1.1239999532700	-0.075368303214232
1.1280000209808	-0.077264504504699
1.1319999694824	-0.079302637829762
1.1360000371933	-0.081483179556394
1.1399999856949	-0.083808899491612
1.1440000534058	-0.086281149206640
1.1480000019073	-0.088899028541050
1.1519999504089	-0.091665750161559
1.1560000181198	-0.094581152652966
1.1599999666214	-0.097643184155065
1.1640000343323	-0.10085286213580
1.1679999828339	-0.10421169402680
1.1720000505447	-0.10771440196660
1.1759999990463	-0.11136554409562
1.1799999475479	-0.11515871526419
1.1840000152588	-0.11909587327043
1.1879999637604	-0.12317399572825
1.1920000314713	-0.12739088830247
1.1959999799728	-0.13174298886585
1.2000000476837	-0.13623089609905
1.2039999961853	-0.14084945732897
1.2079999446869	-0.14559604385326
1.2120000123978	-0.15046854562372
1.2159999608994	-0.15546292027754
1.2200000286102	-0.16057579633426
1.2239999771118	-0.16580389002661
1.2280000448227	-0.17114155944444
1.2319999933243	-0.17658667852648
1.2359999418259	-0.18213542405453
1.2400000095367	-0.18778255797006
1.2439999580383	-0.19352367354823
1.2480000257492	-0.19935483880215
1.2519999742508	-0.20527190655900
1.2560000419617	-0.21127034467717
1.2599999904633	-0.21734481044038
1.2640000581741	-0.22349335091963
1.2680000066757	-0.22970719253477
1.2719999551773	-0.23598633134061
1.2760000228882	-0.24232400954190
1.2799999713898	-0.24871621106817
1.2840000391006	-0.25516009549233
1.2879999876022	-0.26164994989891
1.2920000553131	-0.26818225886329
1.2960000038147	-0.27475485490029
1.2999999523163	-0.28136332915125
1.3040000200272	-0.28800434718894
1.3079999685287	-0.29467357115956
1.3120000362396	-0.30137021458079
1.3159999847412	-0.30809068997326
1.3200000524521	-0.31483333177004
1.3240000009537	-0.32159694028231
1.3279999494553	-0.32837776054327
1.3320000171661	-0.33517550336132
1.3359999656677	-0.34199063100554
1.3400000333786	-0.34882224443151
1.3439999818802	-0.35566905543218
1.3480000495911	-0.36253271077577
1.3519999980927	-0.36941420722776
1.3559999465942	-0.37631337014021
1.3600000143051	-0.38323486823657
1.3639999628067	-0.39017800664398
1.3680000305176	-0.39714717945108
1.3719999790192	-0.40414555440706
1.3760000467300	-0.41117695794586
1.3799999952316	-0.41824608835898
1.3839999437332	-0.42535739147454
1.3880000114441	-0.43251457039825
1.3919999599457	-0.43972818501420
1.3960000276566	-0.44700152137629
1.3999999761581	-0.45434213837091
1.4040000438690	-0.46175834981371
1.4079999923706	-0.46925736908870
1.4119999408722	-0.47685040714157
1.4160000085831	-0.48454421069029
1.4199999570847	-0.49235079700393
1.4240000247955	-0.50027887520718
1.4279999732971	-0.50834160653855
1.4320000410080	-0.51654863552164
1.4359999895096	-0.52491379825475
1.4400000572205	-0.53344885572449
1.4440000057220	-0.54216683332774
1.4479999542236	-0.55108159265586
1.4520000219345	-0.56020915072012
1.4559999704361	-0.56956220512434
1.4600000381470	-0.57915582379034
1.4639999866486	-0.58900652705273
1.4680000543594	-0.59913092687094
1.4720000028610	-0.60954458055822
1.4759999513626	-0.62026529928574
1.4800000190735	-0.63131002465036
1.4839999675751	-0.64269648799892
1.4880000352859	-0.65444338996151
1.4919999837875	-0.66656841961593
1.4960000514984	-0.67909211087471
1.5000000000000	-0.69203230152255
1.5039999485016	-0.70540813370344
1.5080000162125	-0.71924079102433
1.5119999647141	-0.73354901478033
1.5160000324249	-0.74835533559846
1.5199999809265	-0.76367781993811
1.5240000486374	-0.77954049122716
1.5279999971390	-0.79596141074252
1.5319999456406	-0.81296398426748
1.5360000133514	-0.83056837539354
1.5399999618530	-0.84879662262828
1.5440000295639	-0.86767227397704
1.5479999780655	-0.88721583145460
1.5520000457764	-0.90744891310328
1.5559999942780	-0.92839599218302
1.5599999427795	-0.95007714622758
1.5640000104904	-0.97251810832417
1.5679999589920	-0.99573784993516
1.5720000267029	-1.0197620415833
1.5759999752045	-1.0446127444973
1.5800000429153	-1.0703124161953
1.5839999914169	-1.0968848228144
1.5880000591278	-1.1243535446686
1.5920000076294	-1.1527398406142
1.5959999561310	-1.1820684584428
1.6000000238419	-1.2123627898005
1.6039999723434	-1.2436452604353
1.6080000400543	-1.2759380985110
1.6119999885559	-1.3092689536555
1.6160000562668	-1.3436574352935
1.6200000047684	-1.3791271645292
1.6239999532700	-1.4157051007159
1.6280000209808	-1.4534091866219
1.6319999694824	-1.4922674716711
1.6360000371933	-1.5323025099467
1.6399999856949	-1.5735376662160
1.6440000534058	-1.6159953328091
1.6480000019073	-1.6597000291834
1.6519999504089	-1.7046756361234
1.6560000181198	-1.7509428623438
1.6599999666214	-1.7985323256988
1.6640000343323	-1.8474597887524
1.6679999828339	-1.8977546938926
1.6720000505447	-1.9494372953159
1.6759999990463	-2.0025329173142
1.6799999475479	-2.0570640260291
1.6840000152588	-2.1130548703204
1.6879999637604	-2.1705303236263
1.6920000314713	-2.2295132065761
1.6959999799728	-2.2900267233944
1.7000000476837	-2.3520943167003
1.7039999961853	-2.4157413995513
1.7079999446869	-2.4809890801732
1.7120000123978	-2.5478635407313
1.7159999608994	-2.6163856737978
1.7200000286102	-2.6865807963951
1.7239999771118	-2.7584736352247
1.7280000448227	-2.8320827546447
1.7319999933243	-2.9074347470144
1.7359999418259	-2.9845512938184
1.7400000095367	-3.0634557339094
1.7439999580383	-3.1441740249057
1.7480000257492	-3.2267210971083
1.7519999742508	-3.3111255509887
1.7560000419617	-3.3974062265250
1.7599999904633	-3.4855852340187
1.7640000581741	-3.5756838308733
1.7680000066757	-3.6677211397364
1.7719999551773	-3.7617168835748
1.7760000228882	-3.8576916635826
1.7799999713898	-3.9556618574959
1.7840000391006	-4.0556464677881
1.7879999876022	-4.1576616552807
1.7920000553131	-4.2617217676215
1.7960000038147	-4.3678420922083
1.7999999523163	-4.4760340917570
1.8040000200272	-4.5863073470938
1.8079999685287	-4.6986740325991
1.8120000362396	-4.8131386770075
1.8159999847412	-4.9297061342638
1.8200000524521	-5.0483797933717
1.8240000009537	-5.1691574715968
1.8279999494553	-5.2920323706607
1.8320000171661	-5.4170007600381
1.8359999656677	-5.5440479981040
1.8400000333786	-5.6731590866385
1.8439999818802	-5.8043115185947
1.8480000495911	-5.9374775217170
1.8519999980927	-6.0726232971770
1.8559999465942	-6.2097082743838
1.8600000143051	-6.3486865665879
1.8639999628067	-6.4894991684109
1.8680000305176	-6.6320800517466
1.8719999790192	-6.7763551862555
1.8760000467300	-6.9222357902172
1.8799999952316	-7.0696222573000
1.8839999437332	-7.2184000563277
1.8880000114441	-7.3684460595259
1.8919999599457	-7.5196120766293
1.8960000276566	-7.6717382710518
1.8999999761581	-7.8246474122740
1.9040000438690	-7.9781386255296
1.9079999923706	-8.1319923122733
1.9119999408722	-8.2859642631008
1.9160000085831	-8.4397892236746
1.9199999570847	-8.5931742711110
1.9240000247955	-8.7458012900134
1.9279999732971	-8.8973289924918
1.9320000410080	-9.0473830195094
1.9359999895096	-9.1955682590191
1.9400000572205	-9.3414569488223
1.9440000057220	-9.4846010831245
1.9479999542236	-9.6245270072406
1.9520000219345	-9.7607361812078
1.9559999704361	-9.8927182706075
1.9600000381470	-10.019942312961
1.9639999866486	-10.141871230650
1.9680000543594	-10.257964664262
1.9720000028610	-10.367682083228
1.9759999513626	-10.470497356741
1.9800000190735	-10.565902806928
1.9839999675751	-10.653416746099
1.9880000352859	-10.732593949356
1.9919999837875	-10.803033107186
1.9960000514984	-10.864391420397
2.0000000000000	-10.916377773347
2.0039999485016	-10.958774337913
2.0079998970032	-10.991435797802
2.0120000839233	-11.014289948260
2.0160000324249	-11.027340575286
2.0199999809265	-11.030672678193
2.0239999294281	-11.024441805954
2.0280001163483	-11.008877868508
2.0320000648499	-10.984278843983
2.0360000133514	-10.950994063480
2.0399999618530	-10.909428313038
2.0439999103546	-10.860029777814
2.0480000972748	-10.803281803026
2.0520000457764	-10.739690973260
2.0559999942780	-10.669779605484
2.0599999427795	-10.594082072906
2.0639998912811	-10.513132678907
2.0680000782013	-10.427458990311
2.0720000267029	-10.337583786022
2.0759999752045	-10.244006307719
2.0799999237061	-10.147211317931
2.0840001106262	-10.047662112617
2.0880000591278	-9.9457924153142
2.0920000076294	-9.8420181277354
2.0959999561310	-9.7367200673116
2.0999999046326	-9.6302569828839
2.1040000915527	-9.5229593857476
2.1080000400543	-9.4151284541511
2.1119999885559	-9.3070438294302
2.1159999370575	-9.1989574979756
2.1199998855591	-9.0910992207389
2.1240000724792	-8.9836767501125
2.1280000209808	-8.8768744995226
2.1319999694824	-8.7708580977283
2.1359999179840	-8.6657756655143
2.1400001049042	-8.5617585213131
2.1440000534058	-8.4589201138009
2.1480000019073	-8.3573606263009
2.1519999504089	-8.2571685011702
2.1559998989105	-8.1584160935839
2.1600000858307	-8.0611673450313
2.1640000343323	-7.9654776737381
2.1679999828339	-7.8713876440837
2.1719999313354	-7.7789346739321
2.1760001182556	-7.6881451077214
2.1800000667572	-7.5990418288036
2.1840000152588	-7.5116377088369
2.1879999637604	-7.4259416698598
2.1919999122620	-7.3419583269121
2.1960000991821	-7.2596858313329
2.2000000476837	-7.1791185706666
2.2039999961853	-7.1002496541246
