Freq	Magn
0.0000000000000	-0.00066063503436242
0.0040000001899898	-0.00068138689753847
0.0080000003799796	-0.00074313176715224
0.012000000104308	-0.00084381968595669
0.016000000759959	-0.00098555667115183
0.019999999552965	-0.0011673560499428
0.024000000208616	-0.0013887622593669
0.028000000864267	-0.0016488151693014
0.032000001519918	-0.0019470852547114
0.035999998450279	-0.0022816016957429
0.039999999105930	-0.0026524770129797
0.043999999761581	-0.0030582801572593
0.048000000417233	-0.0034991469136489
0.052000001072884	-0.0039726302908970
0.056000001728535	-0.0044773301601800
0.059999998658895	-0.0050123720123523
0.064000003039837	-0.0055753349434481
0.068000003695488	-0.0061648392860183
0.071999996900558	-0.0067800309745437
0.075999997556210	-0.0074185049013759
0.079999998211861	-0.0080778606627830
0.083999998867512	-0.0087588066048376
0.087999999523163	-0.0094558387399550
0.092000000178814	-0.010170187971433
0.096000000834465	-0.010897901286289
0.10000000149012	-0.011638136447493
0.10400000214577	-0.012386414865627
0.10800000280142	-0.013143448589591
0.11200000345707	-0.013904751920347
0.11599999666214	-0.014670498224971
0.11999999731779	-0.015436712616426
0.12399999797344	-0.016201488177144
0.12800000607967	-0.016962898912563
0.13199999928474	-0.017719021907254
0.13600000739098	-0.018467396467831
0.14000000059605	-0.019205035747981
0.14399999380112	-0.019931538636006
0.14800000190735	-0.020643366679647
0.15199999511242	-0.021339058115628
0.15600000321865	-0.022017129834548
0.15999999642372	-0.022675047314000
0.16400000452995	-0.023309221830915
0.16799999773502	-0.023919688905906
0.17200000584126	-0.024505416377742
0.17599999904633	-0.025064852667407
0.18000000715256	-0.025592790864688
0.18400000035763	-0.026091793177237
0.18799999356270	-0.026558163119675
0.19200000166893	-0.026990810427552
0.19599999487400	-0.027389119067245
0.20000000298023	-0.027750921401148
0.20399999618530	-0.028075582343467
0.20800000429153	-0.028363987804744
0.21199999749660	-0.028610817174980
0.21600000560284	-0.028819530259086
0.21999999880791	-0.028988379907511
0.22400000691414	-0.029115088058513
0.22800000011921	-0.029202043955698
0.23199999332428	-0.029245913908737
0.23600000143051	-0.029249026828016
0.23999999463558	-0.029210103378494
0.24400000274181	-0.029129909378755
0.24799999594688	-0.029008162158227
0.25200000405312	-0.028844559428248
0.25600001215935	-0.028640884226838
0.25999999046326	-0.028397323759683
0.26399999856949	-0.028113578667335
0.26800000667572	-0.027790843078314
0.27200001478195	-0.027430341834817
0.27599999308586	-0.027031730506512
0.28000000119209	-0.026599830888136
0.28400000929832	-0.026132219811512
0.28799998760223	-0.025631647696526
0.29199999570847	-0.025098765977621
0.29600000381470	-0.024535804259802
0.30000001192093	-0.023943446819013
0.30399999022484	-0.023324409080221
0.30799999833107	-0.022679883294557
0.31200000643730	-0.022013151371530
0.31600001454353	-0.021322777642851
0.31999999284744	-0.020613093099138
0.32400000095367	-0.019887357328962
0.32800000905991	-0.019145206465639
0.33199998736382	-0.018389977401645
0.33599999547005	-0.017622828553706
0.34000000357628	-0.016847629160172
0.34400001168251	-0.016064550741313
0.34799998998642	-0.015277990599935
0.35199999809265	-0.014488648589208
0.35600000619888	-0.013699926403180
0.36000001430511	-0.012913595157555
0.36399999260902	-0.012130978232471
0.36800000071526	-0.011356019165707
0.37200000882149	-0.010589508109193
0.37599998712540	-0.0098359174875289
0.37999999523163	-0.0090940752685150
0.38400000333786	-0.0083695007857481
0.38800001144409	-0.0076625282525214
0.39199998974800	-0.0069751837398690
0.39599999785423	-0.0063094232934396
0.40000000596046	-0.0056698452447844
0.40400001406670	-0.0050543166450767
0.40799999237061	-0.0044680383829172
0.41200000047684	-0.0039109403758206
0.41600000858307	-0.0033841644144541
0.41999998688698	-0.0028923627798306
0.42399999499321	-0.0024330149780491
0.42800000309944	-0.0020098717657505
0.43200001120567	-0.0016260991844591
0.43599998950958	-0.0012778064032864
0.43999999761581	-0.00097129131528202
0.44400000572205	-0.00070418099108299
0.44800001382828	-0.00047919999205443
0.45199999213219	-0.00029613313421634
0.45600000023842	-0.00015578074951156
0.46000000834465	-6.0443247973570e-05
0.46399998664856	-8.8662817502596e-06
0.46799999475479	2.3363012714585e-07
0.47200000286102	-3.8172872734516e-05
0.47600001096725	-0.00011767066148637
0.47999998927116	-0.00024385448771941
0.48399999737740	-0.00041492371680016
0.48800000548363	-0.00063027739415322
0.49200001358986	-0.00088717699237093
0.49599999189377	-0.0011886644669427
0.50000000000000	-0.0015319592463594
0.50400000810623	-0.0019180760969106
0.50800001621246	-0.0023442394223329
0.51200002431870	-0.0028114444885044
0.51599997282028	-0.0033158768339515
0.51999998092651	-0.0038575713326129
0.52399998903275	-0.0044357599887632
0.52799999713898	-0.0050493595865154
0.53200000524521	-0.0056951403873348
0.53600001335144	-0.0063734601950734
0.54000002145767	-0.0070800170459743
0.54400002956390	-0.0078152426712972
0.54799997806549	-0.0085757052478770
0.55199998617172	-0.0093608406501084
0.55599999427795	-0.010168299603201
0.56000000238419	-0.010994163425392
0.56400001049042	-0.011838735489444
0.56800001859665	-0.012697601650638
0.57200002670288	-0.013570427153620
0.57599997520447	-0.014454206885729
0.57999998331070	-0.015345576490085
0.58399999141693	-0.016243050971202
0.58799999952316	-0.017142975894842
0.59200000762939	-0.018045496246816
0.59600001573563	-0.018945349672087
0.60000002384186	-0.019843123101885
0.60399997234344	-0.020733013254370
0.60799998044968	-0.021613813224271
0.61199998855591	-0.022483804495537
0.61599999666214	-0.023340757791124
0.62000000476837	-0.024181430102239
0.62400001287460	-0.025003297662912
0.62800002098083	-0.025804580539300
0.63200002908707	-0.026583867324740
0.63599997758865	-0.027337626352011
0.63999998569489	-0.028064391953237
0.64399999380112	-0.028762621684130
0.64800000190735	-0.029428279275059
0.65200001001358	-0.030061677285453
0.65600001811981	-0.030660663888096
0.66000002622604	-0.031223073427401
0.66399997472763	-0.031747797629512
0.66799998283386	-0.032232440812642
0.67199999094009	-0.032676935217005
0.67599999904633	-0.033078077044059
0.68000000715256	-0.033437473996860
0.68400001525879	-0.033751953538515
0.68800002336502	-0.034021813104278
0.69199997186661	-0.034245192302825
0.69599997997284	-0.034423075665394
0.69999998807907	-0.034552852363519
0.70399999618530	-0.034635247737915
0.70800000429153	-0.034671398109560
0.71200001239777	-0.034659562531083
0.71600002050400	-0.034600336362328
0.72000002861023	-0.034494149982049
0.72399997711182	-0.034340708260028
0.72799998521805	-0.034141252011719
0.73199999332428	-0.033896020131247
0.73600000143051	-0.033605859789976
0.74000000953674	-0.033271096435061
0.74400001764297	-0.032893901754111
0.74800002574921	-0.032475282995732
0.75199997425079	-0.032016227434085
0.75599998235703	-0.031518198423235
0.75999999046326	-0.030982714921472
0.76399999856949	-0.030411926790980
0.76800000667572	-0.029806896478123
0.77200001478195	-0.029169815877599
0.77600002288818	-0.028503453819107
0.77999997138977	-0.027809367328237
0.78399997949600	-0.027088801533152
0.78799998760223	-0.026344927871419
0.79199999570847	-0.025582156576863
0.79600000381470	-0.024799769474928
0.80000001192093	-0.024001228061428
0.80400002002716	-0.023189733954256
0.80800002813339	-0.022367650780223
0.81199997663498	-0.021537820873070
0.81599998474121	-0.020703081703265
0.81999999284744	-0.019866494333058
0.82400000095367	-0.019028914092796
0.82800000905991	-0.018195592242239
0.83200001716614	-0.017368521151860
0.83600002527237	-0.016550160714941
0.83999997377396	-0.015743219059085
0.84399998188019	-0.014952212359056
0.84799998998642	-0.014176648784283
0.85199999809265	-0.013423743102546
0.85600000619888	-0.012691623510392
0.86000001430511	-0.011987015579829
0.86400002241135	-0.011309779096877
0.86799997091293	-0.010662966907827
0.87199997901917	-0.010050696220567
0.87599998712540	-0.0094739584993664
0.87999999523163	-0.0089351572912389
0.88400000333786	-0.0084367614496169
0.88800001144409	-0.0079818537410143
0.89200001955032	-0.0075710793676245
0.89600002765656	-0.0072066676545971
0.89999997615814	-0.0068921033212052
0.90399998426437	-0.0066278920305596
0.90799999237061	-0.0064159018749229
0.91200000047684	-0.0062570733937521
0.91600000858307	-0.0061534994789240
0.92000001668930	-0.0061067245362034
0.92400002479553	-0.0061161937336293
0.92799997329712	-0.0061849334740963
0.93199998140335	-0.0063120491791771
0.93599998950958	-0.0064993613660228
0.93999999761581	-0.0067479366480036
0.94400000572205	-0.0070557078342860
0.94800001382828	-0.0074260997105326
0.95200002193451	-0.0078565987836019
0.95599997043610	-0.0083483856337029
0.95999997854233	-0.0089009051431789
0.96399998664856	-0.0095143328068801
0.96799999475479	-0.010187205573113
0.97200000286102	-0.010918595877008
0.97600001096725	-0.011708410452637
0.98000001907349	-0.012554866706203
0.98400002717972	-0.013458458182303
0.98799997568130	-0.014416391512431
0.99199998378754	-0.015427018320637
0.99599999189377	-0.016489816281663
1.0000000000000	-0.017601496837527
1.0039999485016	-0.018762017517030
1.0080000162125	-0.019969169738606
1.0119999647141	-0.021219479728624
1.0160000324249	-0.022511856316252
1.0199999809265	-0.023843558580315
1.0240000486374	-0.025210535587751
1.0279999971390	-0.026613203700995
1.0319999456406	-0.028046966940346
1.0360000133514	-0.029509246022522
1.0399999618530	-0.030997466555757
1.0440000295639	-0.032508776382808
1.0479999780655	-0.034039745452055
1.0520000457764	-0.035587602104176
1.0559999942780	-0.037150309651748
1.0599999427795	-0.038723278940187
1.0640000104904	-0.040303536493911
1.0679999589920	-0.041888845967152
1.0720000267029	-0.043474465622750
1.0759999752045	-0.045058830904855
1.0800000429153	-0.046637869692180
1.0839999914169	-0.048208273443942
1.0880000591278	-0.049767605043766
1.0920000076294	-0.051312220091502
1.0959999561310	-0.052839286421344
1.1000000238419	-0.054345058640646
1.1039999723434	-0.055827434360261
1.1080000400543	-0.057282795174384
1.1119999885559	-0.058709669139130
1.1160000562668	-0.060103639326121
1.1200000047684	-0.061464004296278
1.1239999532700	-0.062785941795907
1.1280000209808	-0.064068790586612
1.1319999694824	-0.065309980128580
1.1360000371933	-0.066506955501111
1.1399999856949	-0.067657678484944
1.1440000534058	-0.068760071381766
1.1480000019073	-0.069813128556740
1.1519999504089	-0.070816234455164
1.1560000181198	-0.071765568951075
1.1599999666214	-0.072662199362216
1.1640000343323	-0.073503060231315
1.1679999828339	-0.074289709042385
1.1720000505447	-0.075018926368837
1.1759999990463	-0.075691978084539
1.1799999475479	-0.076309498226379
1.1840000152588	-0.076868707883955
1.1879999637604	-0.077372157630821
1.1920000314713	-0.077818552063595
1.1959999799728	-0.078209206400313
1.2000000476837	-0.078545939871263
1.2039999961853	-0.078826927643038
1.2079999446869	-0.079056467372162
1.2120000123978	-0.079233357429291
1.2159999608994	-0.079361330264378
1.2200000286102	-0.079440591812902
1.2239999771118	-0.079473520054405
1.2280000448227	-0.079461989577195
1.2319999933243	-0.079411140406931
1.2359999418259	-0.079318641315820
1.2400000095367	-0.079191129211010
1.2439999580383	-0.079029809730553
1.2480000257492	-0.078838716922983
1.2519999742508	-0.078619792386493
1.2560000419617	-0.078376678798861
1.2599999904633	-0.078113380331081
1.2640000581741	-0.077834438609566
1.2680000066757	-0.077543612366928
1.2719999551773	-0.077241416336406
1.2760000228882	-0.076935858698289
1.2799999713898	-0.076628950468552
1.2840000391006	-0.076326291120041
1.2879999876022	-0.076031810922642
1.2920000553131	-0.075749460966981
1.2960000038147	-0.075483375890081
1.2999999523163	-0.075239417593372
1.3040000200272	-0.075019692130365
1.3079999685287	-0.074831580889019
1.3120000362396	-0.074677501365767
1.3159999847412	-0.074564264690458
1.3200000524521	-0.074495141682387
1.3240000009537	-0.074474832772895
1.3279999494553	-0.074507364608554
1.3320000171661	-0.074598571903685
1.3359999656677	-0.074751575403373
1.3400000333786	-0.074971420915113
1.3439999818802	-0.075264274026811
1.3480000495911	-0.075630760777385
1.3519999980927	-0.076078699276075
1.3559999465942	-0.076609262214045
1.3600000143051	-0.077229827743295
1.3639999628067	-0.077940766909681
1.3680000305176	-0.078747382438542
1.3719999790192	-0.079653935973448
1.3760000467300	-0.080664091413311
1.3799999952316	-0.081779872727223
1.3839999437332	-0.083004325220585
1.3880000114441	-0.084342138934910
1.3919999599457	-0.085795178303927
1.3960000276566	-0.087365414556673
1.3999999761581	-0.089056919836806
1.4040000438690	-0.090870664801887
1.4079999923706	-0.092808589881693
1.4119999408722	-0.094875076325232
1.4160000085831	-0.097068791550123
1.4199999570847	-0.099392090028059
1.4240000247955	-0.10184759879595
1.4279999732971	-0.10443412622910
1.4320000410080	-0.10715367188616
1.4359999895096	-0.11000716405486
1.4400000572205	-0.11299478002487
1.4440000057220	-0.11611520256412
1.4479999542236	-0.11936969143402
1.4520000219345	-0.12275923877356
1.4559999704361	-0.12627997914621
1.4600000381470	-0.12993419902215
1.4639999866486	-0.13371839793177
1.4680000543594	-0.13763459543689
1.4720000028610	-0.14167945265942
1.4759999513626	-0.14585050829051
1.4800000190735	-0.15014675634424
1.4839999675751	-0.15456840166769
1.4880000352859	-0.15910892776852
1.4919999837875	-0.16376932728714
1.4960000514984	-0.16854686059858
1.5000000000000	-0.17343656035867
1.5039999485016	-0.17843832903531
1.5080000162125	-0.18354757441717
1.5119999647141	-0.18876120682236
1.5160000324249	-0.19407723909506
1.5199999809265	-0.19948956470376
1.5240000486374	-0.20499798653972
1.5279999971390	-0.21059599075790
1.5319999456406	-0.21628179426083
1.5360000133514	-0.22205137340630
1.5399999618530	-0.22790138272457
1.5440000295639	-0.23382688656007
1.5479999780655	-0.23982443128517
1.5520000457764	-0.24589046737259
1.5559999942780	-0.25202228389221
1.5599999427795	-0.25821366125353
1.5640000104904	-0.26446211288550
1.5679999589920	-0.27076544089999
1.5720000267029	-0.27711735254717
1.5759999752045	-0.28351715993284
1.5800000429153	-0.28995910655247
1.5839999914169	-0.29644025729403
1.5880000591278	-0.30295973805774
1.5920000076294	-0.30951238236033
1.5959999561310	-0.31609485427066
1.6000000238419	-0.32270619829417
1.6039999723434	-0.32934399620259
1.6080000400543	-0.33600553046682
1.6119999885559	-0.34268942959396
1.6160000562668	-0.34939417157288
1.6200000047684	-0.35611697947396
1.6239999532700	-0.36285926967330
1.6280000209808	-0.36961793683682
1.6319999694824	-0.37639523505510
1.6360000371933	-0.38318921341233
1.6399999856949	-0.39000141394685
1.6440000534058	-0.39683078448320
1.6480000019073	-0.40367980329184
1.6519999504089	-0.41055075546149
1.6560000181198	-0.41744356525619
1.6599999666214	-0.42436306640203
1.6640000343323	-0.43131016627969
1.6679999828339	-0.43828728537920
1.6720000505447	-0.44530013962022
1.6759999990463	-0.45235232931957
1.6799999475479	-0.45944807318268
1.6840000152588	-0.46659222380102
1.6879999637604	-0.47379082021899
1.6920000314713	-0.48104983144188
1.6959999799728	-0.48837460102863
1.7000000476837	-0.49577255651355
1.7039999961853	-0.50325351120824
1.7079999446869	-0.51082265474003
1.7120000123978	-0.51848855482931
1.7159999608994	-0.52626113026791
1.7200000286102	-0.53415015372557
1.7239999771118	-0.54216316716977
1.7280000448227	-0.55031330021090
1.7319999933243	-0.55860933118730
1.7359999418259	-0.56706202945209
1.7400000095367	-0.57568529481630
1.7439999580383	-0.58448877090553
1.7480000257492	-0.59348594896600
1.7519999742508	-0.60269182264327
1.7560000419617	-0.61211558909565
1.7599999904633	-0.62177517799909
1.7640000581741	-0.63168126796290
1.7680000066757	-0.64184998958991
1.7719999551773	-0.65229641442994
1.7760000228882	-0.66303514262223
1.7799999713898	-0.67408209877771
1.7840000391006	-0.68545373368675
1.7879999876022	-0.69716431033040
1.7920000553131	-0.70923312862890
1.7960000038147	-0.72167584883994
1.7999999523163	-0.73450695989954
1.8040000200272	-0.74774711270781
1.8079999685287	-0.76141365928604
1.8120000362396	-0.77552341412835
1.8159999847412	-0.79009598351431
1.8200000524521	-0.80514678006531
1.8240000009537	-0.82069642212192
1.8279999494553	-0.83676435133934
1.8320000171661	-0.85336648732301
1.8359999656677	-0.87052530282885
1.8400000333786	-0.88825616056817
1.8439999818802	-0.90658167094387
1.8480000495911	-0.92551874477392
1.8519999980927	-0.94509003888000
1.8559999465942	-0.96531176946442
1.8600000143051	-0.98620632232408
1.8639999628067	-1.0077912215489
1.8680000305176	-1.0300884084244
1.8719999790192	-1.0531154631344
1.8760000467300	-1.0768956089146
1.8799999952316	-1.1014461526041
1.8839999437332	-1.1267883756427
1.8880000114441	-1.1529415323352
1.8919999599457	-1.1799265060694
1.8960000276566	-1.2077623418457
1.8999999761581	-1.2364713703607
1.9040000438690	-1.2660709704888
1.9079999923706	-1.2965834497444
1.9119999408722	-1.3280276876368
1.9160000085831	-1.3604234523329
1.9199999570847	-1.3937911568732
1.9240000247955	-1.4281512961044
1.9279999732971	-1.4635234277487
1.9320000410080	-1.4999258788371
1.9359999895096	-1.5373824255481
1.9400000572205	-1.5759082275064
1.9440000057220	-1.6155247933004
1.9479999542236	-1.6562525755045
1.9520000219345	-1.6981103850292
1.9559999704361	-1.7411174635593
1.9600000381470	-1.7852925657505
1.9639999866486	-1.8306546383605
1.9680000543594	-1.8772235747569
1.9720000028610	-1.9250187809114
1.9759999513626	-1.9740580815356
1.9800000190735	-2.0243604642032
1.9839999675751	-2.0759427815779
1.9880000352859	-2.1288240365282
1.9919999837875	-2.1830236239232
1.9960000514984	-2.2385580586170
2.0000000000000	-2.2954449066718
2.0039999485016	-2.3537017162603
2.0079998970032	-2.4133448942914
2.0120000839233	-2.4743932544286
2.0160000324249	-2.5368599942426
2.0199999809265	-2.6007623741678
2.0239999294281	-2.6661168495349
2.0280001163483	-2.7329369474984
2.0320000648499	-2.8012392263309
2.0360000133514	-2.8710361166117
2.0399999618530	-2.9423416925444
2.0439999103546	-3.0151695678626
2.0480000972748	-3.0895310428998
2.0520000457764	-3.1654382089798
2.0559999942780	-3.2429016665384
2.0599999427795	-3.3219316690928
2.0639998912811	-3.4025380825476
2.0680000782013	-3.4847259834243
2.0720000267029	-3.5685037976281
2.0759999752045	-3.6538763674929
2.0799999237061	-3.7408478649917
2.0840001106262	-3.8294241668663
2.0880000591278	-3.9196009791629
2.0920000076294	-4.0113794579680
2.0959999561310	-4.1047585226600
2.0999999046326	-4.1997315821667
2.1040000915527	-4.2962919829125
2.1080000400543	-4.3944305005043
2.1119999885559	-4.4941321742043
2.1159999370575	-4.5953858336096
2.1199998855591	-4.6981711439328
2.1240000724792	-4.8024637570339
2.1280000209808	-4.9082411134626
2.1319999694824	-5.0154719325251
2.1359999179840	-5.1241202774460
2.1400001049042	-5.2341496338993
2.1440000534058	-5.3455121500356
2.1480000019073	-5.4581606061931
2.1519999504089	-5.5720369878090
2.1559998989105	-5.6870776931882
2.1600000858307	-5.8032174992088
2.1640000343323	-5.9203756033344
2.1679999828339	-6.0384670930193
2.1719999313354	-6.1573979232147
2.1760001182556	-6.2770654577210
2.1800000667572	-6.3973592107612
2.1840000152588	-6.5181533582591
2.1879999637604	-6.6393172797019
2.1919999122620	-6.7607067227318
2.1960000991821	-6.8821626263843
2.2000000476837	-7.0035191439553
2.2039999961853	-7.1245958238582
