#Parameters = {L=39; e=0.035; h=1.6; i=0.8; l1=4; ls=120; wl=1.7; ws=30}
#"Frequency / GHz"	"S1,1 (1) [Magnitude]"
#----------------------------------------
0.0000000000000	-0.00028060842926055
0.0040000001899898	-0.00028514156988919
0.0080000003799796	-0.00029615287572088
0.012000000104308	-0.00031623270806828
0.016000000759959	-0.00034331291661014
0.019999999552965	-0.00037687966273224
0.024000000208616	-0.00041952661287708
0.028000000864267	-0.00046918886739302
0.032000001519918	-0.00052639124381749
0.035999998450279	-0.00059010641135247
0.039999999105930	-0.00066137867120364
0.043999999761581	-0.00073866509562849
0.048000000417233	-0.00082508297386070
0.052000001072884	-0.00091650176112335
0.056000001728535	-0.0010150053801948
0.059999998658895	-0.0011190537105539
0.064000003039837	-0.0012291784647724
0.068000003695488	-0.0013453940277668
0.071999996900558	-0.0014671976309781
0.075999997556210	-0.0015940873476875
0.079999998211861	-0.0017255610133303
0.083999998867512	-0.0018621527694254
0.087999999523163	-0.0020033622557687
0.092000000178814	-0.0021486875646490
0.096000000834465	-0.0022976270684271
0.10000000149012	-0.0024501991285838
0.10400000214577	-0.0026053852091115
0.10800000280142	-0.0027642348527901
0.11200000345707	-0.0029246948039908
0.11599999666214	-0.0030878169692501
0.11999999731779	-0.0032530983902665
0.12399999797344	-0.0034200370124221
0.12800000607967	-0.0035860555257869
0.13199999928474	-0.0037547971797315
0.13600000739098	-0.0039236811529732
0.14000000059605	-0.0040922042742220
0.14399999380112	-0.0042593399805407
0.14800000190735	-0.0044276881272531
0.15199999511242	-0.0045936341343737
0.15600000321865	-0.0047582179961521
0.15999999642372	-0.0049214486081093
0.16400000452995	-0.0050822940391263
0.16799999773502	-0.0052402377946260
0.17200000584126	-0.0053958030395959
0.17599999904633	-0.0055474309072550
0.18000000715256	-0.0056951267151896
0.18400000035763	-0.0058393997630550
0.18799999356270	-0.0059792126926996
0.19200000166893	-0.0061145532370732
0.19599999487400	-0.0062454152937005
0.20000000298023	-0.0063702313877922
0.20399999618530	-0.0064895105642437
0.20800000429153	-0.0066032318005854
0.21199999749660	-0.0067103474774293
0.21600000560284	-0.0068123840012868
0.21999999880791	-0.0069067370146629
0.22400000691414	-0.0069944121650663
0.22800000011921	-0.0070748718123646
0.23199999332428	-0.0071480779153903
0.23600000143051	-0.0072145223457883
0.23999999463558	-0.0072726150700389
0.24400000274181	-0.0073228409280408
0.24799999594688	-0.0073651619209559
0.25200000405312	-0.0073990130317362
0.25600001215935	-0.0074253926500576
0.25999999046326	-0.0074426974570033
0.26399999856949	-0.0074529542720844
0.26800000667572	-0.0074530067014188
0.27200001478195	-0.0074453926855573
0.27599999308586	-0.0074295283804950
0.28000000119209	-0.0074053664728179
0.28400000929832	-0.0073723367525937
0.28799998760223	-0.0073308874524655
0.29199999570847	-0.0072809565792909
0.29600000381470	-0.0072229922292030
0.30000001192093	-0.0071569423513073
0.30399999022484	-0.0070827343551947
0.30799999833107	-0.0070008002649873
0.31200000643730	-0.0069110871518540
0.31600001454353	-0.0068129944234920
0.31999999284744	-0.0067085321981156
0.32400000095367	-0.0065965688273103
0.32800000905991	-0.0064770340310451
0.33199998736382	-0.0063509045371560
0.33599999547005	-0.0062185968929912
0.34000000357628	-0.0060805515584964
0.34400001168251	-0.0059366964264915
0.34799998998642	-0.0057859146439997
0.35199999809265	-0.0056307063614446
0.35600000619888	-0.0054704726312880
0.36000001430511	-0.0053072160252393
0.36399999260902	-0.0051382361763582
0.36800000071526	-0.0049655614613986
0.37200000882149	-0.0047895896993204
0.37599998712540	-0.0046113030436881
0.37999999523163	-0.0044300938375529
0.38400000333786	-0.0042469182851000
0.38800001144409	-0.0040622032383240
0.39199998974800	-0.0038763863391666
0.39599999785423	-0.0036888983368288
0.40000000596046	-0.0035022373148082
0.40400001406670	-0.0033147570414074
0.40799999237061	-0.0031279605691729
0.41200000047684	-0.0029448767362796
0.41600000858307	-0.0027607721614696
0.41999998688698	-0.0025792026435876
0.42399999499321	-0.0024000970318623
0.42800000309944	-0.0022244273103246
0.43200001120567	-0.0020516479964002
0.43599998950958	-0.0018831905693610
0.43999999761581	-0.0017195668349013
0.44400000572205	-0.0015601758572027
0.44800001382828	-0.0014070392689457
0.45199999213219	-0.0012590840067199
0.45600000023842	-0.0011167815863635
0.46000000834465	-0.00098317584679529
0.46399998664856	-0.00085358721724709
0.46799999475479	-0.00073366172680650
0.47200000286102	-0.00062128571025640
0.47600001096725	-0.00051697089564420
0.47999998927116	-0.00042170613118335
0.48399999737740	-0.00033442445668408
0.48800000548363	-0.00025771246289915
0.49200001358986	-0.00018996793186539
0.49599999189377	-0.00013172438914402
0.50000000000000	-8.4512721337624e-05
0.50400000810623	-4.6228474446079e-05
0.50800001621246	-2.1567606579910e-05
0.51200002431870	-5.3228951224240e-06
0.51599997282028	-5.8703591959760e-07
0.51999998092651	-7.9033374311743e-06
0.52399998903275	-2.5713526235777e-05
0.52799999713898	-5.5574438328279e-05
0.53200000524521	-9.6461389856392e-05
0.53600001335144	-0.00014940390223505
0.54000002145767	-0.00021343334728994
0.54400002956390	-0.00029057367161545
0.54799997806549	-0.00037830424753055
0.55199998617172	-0.00047919990435365
0.55599999427795	-0.00058962936323935
0.56000000238419	-0.00071229691040632
0.56400001049042	-0.00084665177693180
0.56800001859665	-0.00099269290254561
0.57200002670288	-0.0011494329271242
0.57599997520447	-0.0013163995301063
0.57999998331070	-0.0014961581402983
0.58399999141693	-0.0016851472434975
0.58799999952316	-0.0018828042761732
0.59200000762939	-0.0020918906262657
0.59600001573563	-0.0023107060246660
0.60000002384186	-0.0025388465055202
0.60399997234344	-0.0027758130773919
0.60799998044968	-0.0030200247378954
0.61199998855591	-0.0032735826786530
0.61599999666214	-0.0035344562392048
0.62000000476837	-0.0038020901164764
0.62400001287460	-0.0040765017363473
0.62800002098083	-0.0043571982782360
0.63200002908707	-0.0046436465634485
0.63599997758865	-0.0049353346358257
0.63999998569489	-0.0052311556461226
0.64399999380112	-0.0055311513252773
0.64800000190735	-0.0058347898095218
0.65200001001358	-0.0061414746933740
0.65600001811981	-0.0064507167423110
0.66000002622604	-0.0067608317180617
0.66399997472763	-0.0070723954388640
0.66799998283386	-0.0073858082662909
0.67199999094009	-0.0076974067088062
0.67599999904633	-0.0080081658257127
0.68000000715256	-0.0083180614569271
0.68400001525879	-0.0086258214459520
0.68800002336502	-0.0089320422547288
0.69199997186661	-0.0092339401389739
0.69599997997284	-0.0095314629373210
0.69999998807907	-0.0098265504757732
0.70399999618530	-0.010113932589789
0.70800000429153	-0.010397050385130
0.71200001239777	-0.010674244525013
0.71600002050400	-0.010944849374719
0.72000002861023	-0.011208148544005
0.72399997711182	-0.011463518783048
0.72799998521805	-0.011709753146574
0.73199999332428	-0.011947653667431
0.73600000143051	-0.012177073505666
0.74000000953674	-0.012395244641780
0.74400001764297	-0.012604484563850
0.74800002574921	-0.012803060371811
0.75199997425079	-0.012989720119123
0.75599998235703	-0.013166284605785
0.75999999046326	-0.013330985397345
0.76399999856949	-0.013483524406787
0.76800000667572	-0.013624261406176
0.77200001478195	-0.013752303790750
0.77600002288818	-0.013867951046034
0.77999997138977	-0.013971954262169
0.78399997949600	-0.014061986973284
0.78799998760223	-0.014139272364302
0.79199999570847	-0.014204573360702
0.79600000381470	-0.014257018663220
0.80000001192093	-0.014295866592896
0.80400002002716	-0.014321784964153
0.80800002813339	-0.014335517021385
0.81199997663498	-0.014336225787900
0.81599998474121	-0.014326137089561
0.81999999284744	-0.014302911163674
0.82400000095367	-0.014267666304441
0.82800000905991	-0.014222272149932
0.83200001716614	-0.014164741453261
0.83600002527237	-0.014096343987989
0.83999997377396	-0.014018287720041
0.84399998188019	-0.013930229057490
0.84799998998642	-0.013832888365865
0.85199999809265	-0.013726388636057
0.85600000619888	-0.013612479158626
0.86000001430511	-0.013489309774775
0.86400002241135	-0.013360669939156
0.86799997091293	-0.013224641265346
0.87199997901917	-0.013084051501287
0.87599998712540	-0.012937568035318
0.87999999523163	-0.012787919554680
0.88400000333786	-0.012635337577605
0.88800001144409	-0.012479515813616
0.89200001955032	-0.012322190106630
0.89600002765656	-0.012163611002829
0.89999997615814	-0.012005032927294
0.90399998426437	-0.011848240399913
0.90799999237061	-0.011692938763975
0.91200000047684	-0.011540464998863
0.91600000858307	-0.011391555938102
0.92000001668930	-0.011246003345634
0.92400002479553	-0.011108182816880
0.92799997329712	-0.010976277220031
0.93199998140335	-0.010851706667807
0.93599998950958	-0.010735663021989
0.93999999761581	-0.010628754687129
0.94400000572205	-0.010532573322207
0.94800001382828	-0.010447595239389
0.95200002193451	-0.010374733587097
0.95599997043610	-0.010315202106646
0.95999997854233	-0.010269544111639
0.96399998664856	-0.010240038420627
0.96799999475479	-0.010225796291018
0.97200000286102	-0.010227527471652
0.97600001096725	-0.010247779962124
0.98000001907349	-0.010286397313780
0.98400002717972	-0.010342931693478
0.98799997568130	-0.010420365970001
0.99199998378754	-0.010518616996352
0.99599999189377	-0.010638671515593
1.0000000000000	-0.010780092600156
1.0039999485016	-0.010944300599233
1.0080000162125	-0.011132217014855
1.0119999647141	-0.011342986762484
1.0160000324249	-0.011578179897522
1.0199999809265	-0.011838798680631
1.0240000486374	-0.012124135854184
1.0279999971390	-0.012435521249852
1.0319999456406	-0.012771162598968
1.0360000133514	-0.013134496003188
1.0399999618530	-0.013523766702000
1.0440000295639	-0.013939563269224
1.0479999780655	-0.014381515292587
1.0520000457764	-0.014850582323942
1.0559999942780	-0.015345813427916
1.0599999427795	-0.015868871216452
1.0640000104904	-0.016417579337597
1.0679999589920	-0.016992988548152
1.0720000267029	-0.017595069518522
1.0759999752045	-0.018222441300230
1.0800000429153	-0.018874568830313
1.0839999914169	-0.019553102806129
1.0880000591278	-0.020255489257959
1.0920000076294	-0.020984062132478
1.0959999561310	-0.021734858914012
1.1000000238419	-0.022510142672804
1.1039999723434	-0.023307628077014
1.1080000400543	-0.024127330728357
1.1119999885559	-0.024967382188689
1.1160000562668	-0.025829608076012
1.1200000047684	-0.026709904678457
1.1239999532700	-0.027609920796514
1.1280000209808	-0.028528794398971
1.1319999694824	-0.029463976476697
1.1360000371933	-0.030415570602475
1.1399999856949	-0.031382359920010
1.1440000534058	-0.032363296462174
1.1480000019073	-0.033357485085050
1.1519999504089	-0.034363791866417
1.1560000181198	-0.035380421300396
1.1599999666214	-0.036407364883797
1.1640000343323	-0.037443569768069
1.1679999828339	-0.038487462211342
1.1720000505447	-0.039537724230068
1.1759999990463	-0.040593436855458
1.1799999475479	-0.041653187077822
1.1840000152588	-0.042715957932603
1.1879999637604	-0.043780636532100
1.1920000314713	-0.044846769705896
1.1959999799728	-0.045912741590808
1.2000000476837	-0.046976350398276
1.2039999961853	-0.048038767745596
1.2079999446869	-0.049096253894031
1.2120000123978	-0.050149657862794
1.2159999608994	-0.051197930341930
1.2200000286102	-0.052239310551765
1.2239999771118	-0.053273187742267
1.2280000448227	-0.054298568871259
1.2319999933243	-0.055314540127194
1.2359999418259	-0.056321145783125
1.2400000095367	-0.057316177727200
1.2439999580383	-0.058299950371637
1.2480000257492	-0.059270621261771
1.2519999742508	-0.060230118275684
1.2560000419617	-0.061175894177238
1.2599999904633	-0.062106163344167
1.2640000581741	-0.063022609210485
1.2680000066757	-0.063926123331773
1.2719999551773	-0.064814384863587
1.2760000228882	-0.065687184371391
1.2799999713898	-0.066543910662142
1.2840000391006	-0.067387028777414
1.2879999876022	-0.068214528231733
1.2920000553131	-0.069026023293137
1.2960000038147	-0.069824701444579
1.2999999523163	-0.070608492031190
1.3040000200272	-0.071377836887833
1.3079999685287	-0.072133506755007
1.3120000362396	-0.072875900482706
1.3159999847412	-0.073607045219054
1.3200000524521	-0.074325995276930
1.3240000009537	-0.075034941376310
1.3279999494553	-0.075732351101951
1.3320000171661	-0.076422033395460
1.3359999656677	-0.077103832386640
1.3400000333786	-0.077780075846896
1.3439999818802	-0.078449721768438
1.3480000495911	-0.079115791649022
1.3519999980927	-0.079780012013183
1.3559999465942	-0.080442810622694
1.3600000143051	-0.081106558537726
1.3639999628067	-0.081771853465246
1.3680000305176	-0.082441132335033
1.3719999790192	-0.083116481129131
1.3760000467300	-0.083799455317005
1.3799999952316	-0.084492930578986
1.3839999437332	-0.085197584711437
1.3880000114441	-0.085916108652189
1.3919999599457	-0.086649977864419
1.3960000276566	-0.087401480023675
1.3999999761581	-0.088175104641253
1.4040000438690	-0.088969444065609
1.4079999923706	-0.089788837062138
1.4119999408722	-0.090636417922641
1.4160000085831	-0.091512610461219
1.4199999570847	-0.092421685326524
1.4240000247955	-0.093364033974232
1.4279999732971	-0.094343660838515
1.4320000410080	-0.095362329485389
1.4359999895096	-0.096423079696033
1.4400000572205	-0.097527891391948
1.4440000057220	-0.098678722961802
1.4479999542236	-0.099879288185687
1.4520000219345	-0.10113163861955
1.4559999704361	-0.10243761205193
1.4600000381470	-0.10380121601729
1.4639999866486	-0.10522183620913
1.4680000543594	-0.10670453843114
1.4720000028610	-0.10825018479469
1.4759999513626	-0.10986163846684
1.4800000190735	-0.11154142685871
1.4839999675751	-0.11329186772709
1.4880000352859	-0.11511401865463
1.4919999837875	-0.11701003002584
1.4960000514984	-0.11898421272710
1.5000000000000	-0.12103588119141
1.5039999485016	-0.12316711325994
1.5080000162125	-0.12538247349486
1.5119999647141	-0.12768012975484
1.5160000324249	-0.13006373535575
1.5199999809265	-0.13253433853614
1.5240000486374	-0.13509430235018
1.5279999971390	-0.13774357636309
1.5319999456406	-0.14048467155292
1.5360000133514	-0.14331763210895
1.5399999618530	-0.14624554133095
1.5440000295639	-0.14926795686953
1.5479999780655	-0.15238589490552
1.5520000457764	-0.15560084026524
1.5559999942780	-0.15891209952376
1.5599999427795	-0.16232252811139
1.5640000104904	-0.16583136916366
1.5679999589920	-0.16943848653107
1.5720000267029	-0.17314554582186
1.5759999752045	-0.17695219771058
1.5800000429153	-0.18085766345672
1.5839999914169	-0.18486491044138
1.5880000591278	-0.18897000709497
1.5920000076294	-0.19317646875676
1.5959999561310	-0.19748096835815
1.6000000238419	-0.20188557769652
1.6039999723434	-0.20638754698568
1.6080000400543	-0.21098926072598
1.6119999885559	-0.21568736931829
1.6160000562668	-0.22048350325581
1.6200000047684	-0.22537534803624
1.6239999532700	-0.23036376638172
1.6280000209808	-0.23544584337882
1.6319999694824	-0.24062287564541
1.6360000371933	-0.24589085844153
1.6399999856949	-0.25125209558645
1.6440000534058	-0.25670546551063
1.6480000019073	-0.26224603959666
1.6519999504089	-0.26787705351651
1.6560000181198	-0.27359526813441
1.6599999666214	-0.27940043901322
1.6640000343323	-0.28529032864117
1.6679999828339	-0.29126462390217
1.6720000505447	-0.29732199878899
1.6759999990463	-0.30346366341600
1.6799999475479	-0.30968508603499
1.6840000152588	-0.31598632779260
1.6879999637604	-0.32236650257095
1.6920000314713	-0.32882575642471
1.6959999799728	-0.33536225083079
1.7000000476837	-0.34197569455317
1.7039999961853	-0.34866473161496
1.7079999446869	-0.35543011376924
1.7120000123978	-0.36227125714189
1.7159999608994	-0.36918532385653
1.7200000286102	-0.37617644977990
1.7239999771118	-0.38324036444112
1.7280000448227	-0.39037876523020
1.7319999933243	-0.39759242469519
1.7359999418259	-0.40488132737556
1.7400000095367	-0.41224723429560
1.7439999580383	-0.41968886602861
1.7480000257492	-0.42720683062437
1.7519999742508	-0.43480511151316
1.7560000419617	-0.44248355928834
1.7599999904633	-0.45024298455795
1.7640000581741	-0.45808730783873
1.7680000066757	-0.46601520361759
1.7719999551773	-0.47403268941915
1.7760000228882	-0.48214049688918
1.7799999713898	-0.49034202229256
1.7840000391006	-0.49863968495057
1.7879999876022	-0.50703780132662
1.7920000553131	-0.51554003382040
1.7960000038147	-0.52414920368760
1.7999999523163	-0.53287144761340
1.8040000200272	-0.54170888213948
1.8079999685287	-0.55066970046083
1.8120000362396	-0.55975644993883
1.8159999847412	-0.56897584141326
1.8200000524521	-0.57833247476280
1.8240000009537	-0.58783507465189
1.8279999494553	-0.59748715288934
1.8320000171661	-0.60729830593926
1.8359999656677	-0.61727521043431
1.8400000333786	-0.62742289095771
1.8439999818802	-0.63775244149778
1.8480000495911	-0.64827131495953
1.8519999980927	-0.65898640102975
1.8559999465942	-0.66990795650811
1.8600000143051	-0.68104698652727
1.8639999628067	-0.69240915638517
1.8680000305176	-0.70400718621041
1.8719999790192	-0.71585097997997
1.8760000467300	-0.72795051376106
1.8799999952316	-0.74031669581896
1.8839999437332	-0.75296222023637
1.8880000114441	-0.76589813530560
1.8919999599457	-0.77913544458393
1.8960000276566	-0.79268616841887
1.8999999761581	-0.80656442496704
1.9040000438690	-0.82078187776303
1.9079999923706	-0.83535299331323
1.9119999408722	-0.85029020581804
1.9160000085831	-0.86560744121308
1.9199999570847	-0.88131883195481
1.9240000247955	-0.89743976761774
1.9279999732971	-0.91398424531256
1.9320000410080	-0.93096764526307
1.9359999895096	-0.94840494948951
1.9400000572205	-0.96631106776578
1.9440000057220	-0.98470285481688
1.9479999542236	-1.0035962658984
1.9520000219345	-1.0230067150498
1.9559999704361	-1.0429518468829
1.9600000381470	-1.0634484578265
1.9639999866486	-1.0845127622171
1.9680000543594	-1.1061632161370
1.9720000028610	-1.1284178058478
1.9759999513626	-1.1512925188855
1.9800000190735	-1.1748070864730
1.9839999675751	-1.1989795550108
1.9880000352859	-1.2238272358479
1.9919999837875	-1.2493699178265
1.9960000514984	-1.2756278787103
2.0000000000000	-1.3026181112312
2.0039999485016	-1.3303602995436
2.0079998970032	-1.3588759787422
2.0120000839233	-1.3881825661391
2.0160000324249	-1.4183028336341
2.0199999809265	-1.4492548155589
2.0239999294281	-1.4810593517259
2.0280001163483	-1.5137389524096
2.0320000648499	-1.5473140752930
2.0360000133514	-1.5818034325861
2.0399999618530	-1.6172315218199
2.0439999103546	-1.6536179576651
2.0480000972748	-1.6909863186266
2.0520000457764	-1.7293584161645
2.0559999942780	-1.7687547879420
2.0599999427795	-1.8092012032072
2.0639998912811	-1.8507168900899
2.0680000782013	-1.8933276199035
2.0720000267029	-1.9370560911136
2.0759999752045	-1.9819267767588
2.0799999237061	-2.0279619325623
2.0840001106262	-2.0751866371053
2.0880000591278	-2.1236255499169
2.0920000076294	-2.1733037493315
2.0959999561310	-2.2242459564214
2.0999999046326	-2.2764781529248
2.1040000915527	-2.3300268457256
2.1080000400543	-2.3849158588428
2.1119999885559	-2.4411727743319
2.1159999370575	-2.4988248024791
2.1199998855591	-2.5579018714143
2.1240000724792	-2.6184263714226
2.1280000209808	-2.6804297565971
2.1319999694824	-2.7439415264352
2.1359999179840	-2.8089863472572
2.1400001049042	-2.8755987634463
2.1440000534058	-2.9438070865727
2.1480000019073	-3.0136401519137
2.1519999504089	-3.0851306459583
2.1559998989105	-3.1583099460875
2.1600000858307	-3.2332082793233
2.1640000343323	-3.3098614469390
2.1679999828339	-3.3883000182559
2.1719999313354	-3.4685597498653
