#Parameters = {L=45.45; W=58.2; e=0.035; er=1.75; h=1.6; h2=1; ls=120; w0=1.58; w1=4.67; ws=120; y0=13.33; y1=24.29}
#"Frequency / GHz"	"S1,1 (1) [Magnitude]"
#----------------------------------------
0.0000000000000	-0.035789538782740
0.0024999999441206	-0.035531444238615
0.0049999998882413	-0.034794860418909
0.0074999998323619	-0.033690291008576
0.0099999997764826	-0.032383773169381
0.012500000186265	-0.031072882768731
0.014999999664724	-0.029955342847681
0.017500000074506	-0.029201282684608
0.019999999552965	-0.028933581986340
0.022500000894070	-0.029194569513045
0.025000000372529	-0.029958788354296
0.027499999850988	-0.031119579454080
0.029999999329448	-0.032515718318768
0.032499998807907	-0.033944469760193
0.035000000149012	-0.035200145032105
0.037500001490116	-0.036097963344869
0.039999999105930	-0.036503394348438
0.042500000447035	-0.036351538966920
0.045000001788139	-0.035657562253176
0.047499999403954	-0.034515626196733
0.050000000745058	-0.033086958586257
0.052499998360872	-0.031571197836859
0.054999999701977	-0.030187922748408
0.057500001043081	-0.029133303703351
0.059999998658895	-0.028562375786902
0.062500000000000	-0.028557907907244
0.064999997615814	-0.029124212397206
0.067500002682209	-0.030184637685568
0.070000000298023	-0.031590167646373
0.072499997913837	-0.033138391361883
0.075000002980232	-0.034608606820955
0.077500000596046	-0.035785696243534
0.079999998211861	-0.036501370060466
0.082500003278255	-0.036641857252812
0.085000000894070	-0.036185845950299
0.087499998509884	-0.035190452864267
0.090000003576279	-0.033791227185084
0.092500001192093	-0.032186909999385
0.094999998807907	-0.030600561978000
0.097499996423721	-0.029256315318455
0.10000000149012	-0.028344696883564
0.10249999910593	-0.027996835133292
0.10499999672174	-0.028261355924807
0.10750000178814	-0.029104265466340
0.10999999940395	-0.030404590924272
0.11249999701977	-0.031977063424765
0.11500000208616	-0.033599932545633
0.11749999970198	-0.035036378670691
0.11999999731779	-0.036083442117579
0.12250000238419	-0.036587025092398
0.12500000000000	-0.036471545441301
0.12749999761581	-0.035752746337383
0.12999999523163	-0.034527909385290
0.13249999284744	-0.032972584883702
0.13500000536442	-0.031305154243436
0.13750000298023	-0.029765926635279
0.14000000059605	-0.028573176050572
0.14249999821186	-0.027896924743326
0.14499999582767	-0.027837297337345
0.14749999344349	-0.028404470828098
0.15000000596046	-0.029519482687211
0.15250000357628	-0.031024752470576
0.15500000119209	-0.032708764790256
0.15749999880791	-0.034329603464695
0.15999999642372	-0.035657822031898
0.16249999403954	-0.036500491531032
0.16500000655651	-0.036738068418865
0.16750000417233	-0.036334873998635
0.17000000178814	-0.035347276715461
0.17249999940395	-0.033917066563778
0.17499999701977	-0.032248049665781
0.17749999463558	-0.030581827695819
0.18000000715256	-0.029155817369637
0.18250000476837	-0.028174734689562
0.18500000238419	-0.027783948388072
0.18750000000000	-0.028040511499282
0.18999999761581	-0.028909725764789
0.19249999523163	-0.030271372036977
0.19499999284744	-0.031930902476510
0.19750000536442	-0.033653916943897
0.20000000298023	-0.035193972135825
0.20250000059605	-0.036329111549235
0.20499999821186	-0.036896559788356
0.20749999582767	-0.036815096058609
0.20999999344349	-0.036092565011524
0.21250000596046	-0.034833221135045
0.21500000357628	-0.033219833332192
0.21750000119209	-0.031480694818361
0.21999999880791	-0.029867519052169
0.22249999642372	-0.028611907214062
0.22499999403954	-0.027897999802072
0.22750000655651	-0.027827086314506
0.23000000417233	-0.028413228255561
0.23250000178814	-0.029575943988713
0.23499999940395	-0.031147213797389
0.23749999701977	-0.032904399721321
0.23999999463558	-0.034596768743738
0.24250000715256	-0.035978600884204
0.24500000476837	-0.036851885267521
0.24750000238419	-0.037089744421326
0.25000000000000	-0.036652690748280
0.25249999761581	-0.035606531017168
0.25499999523163	-0.034097197218172
0.25749999284744	-0.032343273226323
0.25999999046326	-0.030595478666209
0.26249998807907	-0.029108120494817
0.26499998569489	-0.028094062086952
0.26750001311302	-0.027701814362276
0.27000001072884	-0.027988156408108
0.27250000834465	-0.028913311456314
0.27500000596046	-0.030350503451212
0.27750000357628	-0.032090949528692
0.28000000119209	-0.033885386029639
0.28249999880791	-0.035473405691023
0.28499999642372	-0.036627474338923
0.28749999403954	-0.037178514812941
0.28999999165535	-0.037042974219710
0.29249998927116	-0.036240840744415
0.29499998688698	-0.034883470570816
0.29750001430511	-0.033167445351860
0.30000001192093	-0.031339108665724
0.30250000953674	-0.029663138939868
0.30500000715256	-0.028380372120136
0.30750000476837	-0.027679860901633
0.31000000238419	-0.027661083187875
0.31250000000000	-0.028330712812123
0.31499999761581	-0.029594496233698
0.31749999523163	-0.031270906327564
0.31999999284744	-0.033123069628036
0.32249999046326	-0.034877372668338
0.32499998807907	-0.036285665586125
0.32749998569489	-0.037137637163327
0.33000001311302	-0.037310253092440
0.33250001072884	-0.036776185569393
0.33500000834465	-0.035609422234844
0.33750000596046	-0.033979320486978
0.34000000357628	-0.032117995069353
0.34250000119209	-0.030297653666264
0.34499999880791	-0.028779982472131
0.34749999642372	-0.027785826485534
0.34999999403954	-0.027463221836035
0.35249999165535	-0.027859724175875
0.35499998927116	-0.028920829166749
0.35749998688698	-0.030495463167323
0.36000001430511	-0.032360042929825
0.36250001192093	-0.034244533353312
0.36500000953674	-0.035874509213859
0.36750000715256	-0.037014627555576
0.37000000476837	-0.037495791236575
0.37250000238419	-0.037245845862713
0.37500000000000	-0.036300298264088
0.37749999761581	-0.034792987571921
0.37999999523163	-0.032942943875868
0.38249999284744	-0.031017265095757
0.38499999046326	-0.029296536788533
0.38749998807907	-0.028032283249380
0.38999998569489	-0.027408079048759
0.39250001311302	-0.027520020876385
0.39500001072884	-0.028353109841917
0.39750000834465	-0.029791705362748
0.40000000596046	-0.031631512873413
0.40250000357628	-0.033603904195234
0.40500000119209	-0.035425439227361
0.40749999880791	-0.036830911001806
0.40999999642372	-0.037615548479533
0.41249999403954	-0.037659379473848
0.41499999165535	-0.036957145016178
0.41749998927116	-0.035607339121942
0.41999998688698	-0.033804266727271
0.42250001430511	-0.031811217707745
0.42500001192093	-0.029917954780291
0.42750000953674	-0.028399877635578
0.43000000715256	-0.027481319218806
0.43250000476837	-0.027299005058152
0.43500000238419	-0.027883087201514
0.43750000000000	-0.029151399791578
0.43999999761581	-0.030925496756142
0.44249999523163	-0.032950235074058
0.44499999284744	-0.034931276179377
0.44749999046326	-0.036580430636740
0.44999998807907	-0.037656580478728
0.45249998569489	-0.038000465112939
0.45500001311302	-0.037557852729799
0.45750001072884	-0.036392502639264
0.46000000834465	-0.034671146585152
0.46250000596046	-0.032642727495670
0.46500000357628	-0.030604594501652
0.46750000119209	-0.028854679038591
0.46999999880791	-0.027647615968216
0.47249999642372	-0.027165802848837
0.47499999403954	-0.027480200233470
0.47749999165535	-0.028552032074779
0.47999998927116	-0.030228279408077
0.48249998688698	-0.032268087509987
0.48500001430511	-0.034379072916592
0.48750001192093	-0.036249590199316
0.49000000953674	-0.037607694687411
0.49250000715256	-0.038253468494258
0.49500000476837	-0.038086615222012
0.49750000238419	-0.037130069128257
0.50000000000000	-0.035521822861238
0.50249999761581	-0.033492283924118
0.50499999523163	-0.031340363219412
0.50749999284744	-0.029376850855266
0.50999999046326	-0.027893766737487
0.51249998807907	-0.027108705468486
0.51499998569489	-0.027141897433920
0.51749998331070	-0.027991475729792
0.51999998092651	-0.029540122908660
0.52249997854233	-0.031565164194225
0.52499997615814	-0.033775058455350
0.52749997377396	-0.035847395586723
0.52999997138977	-0.037480262834906
0.53250002861023	-0.038428421834917
0.53500002622604	-0.038553892983515
0.53750002384186	-0.037832212619201
0.54000002145767	-0.036366992292118
0.54250001907349	-0.034369311886765
0.54500001668930	-0.032130355348273
0.54750001430511	-0.029979040128093
0.55000001192093	-0.028230541764506
0.55250000953674	-0.027143616786183
0.55500000715256	-0.026880343652324
0.55750000476837	-0.027487888539540
0.56000000238419	-0.028880382890687
0.56250000000000	-0.030862139106996
0.56499999761581	-0.033146837676827
0.56749999523163	-0.035401738798779
0.56999999284744	-0.037296030644628
0.57249999046326	-0.038553106250111
0.57499998807907	-0.038983338226273
0.57749998569489	-0.038520351778624
0.57999998331070	-0.037228130814598
0.58249998092651	-0.035293010605201
0.58499997854233	-0.032998306304167
0.58749997615814	-0.030677057124580
0.58999997377396	-0.028673559823665
0.59249997138977	-0.027284281099714
0.59500002861023	-0.026714791691772
0.59750002622604	-0.027057723308077
0.60000002384186	-0.028267454294402
0.60250002145767	-0.030175267389659
0.60500001907349	-0.032506135900432
0.60750001668930	-0.034922103487897
0.61000001430511	-0.037071204913340
0.61250001192093	-0.038635577397479
0.61500000953674	-0.039384995219682
0.61750000715256	-0.039201996786657
0.62000000476837	-0.038111631373867
0.62250000238419	-0.036268305333103
0.62500000000000	-0.033942446180812
0.62749999761581	-0.031474158146915
0.62999999523163	-0.029225893572342
0.63249999284744	-0.027530628652600
0.63499999046326	-0.026643055916191
0.63749998807907	-0.026697869031483
0.63999998569489	-0.027695554621952
0.64249998331070	-0.029498041576874
0.64499998092651	-0.031847527403820
0.64749997854233	-0.034405906866166
0.64999997615814	-0.036797580369916
0.65249997377396	-0.038672076804635
0.65499997138977	-0.039751002375578
0.65750002861023	-0.039871484618117
0.66000002622604	-0.039010895471787
0.66250002384186	-0.037289307150788
0.66500002145767	-0.034960702542549
0.66750001907349	-0.032362785395333
0.67000001668930	-0.029878927684968
0.67250001430511	-0.027877616031492
0.67500001192093	-0.026654235100507
0.67750000953674	-0.026399370051707
0.68000000715256	-0.027157238925752
0.68250000476837	-0.028824439238417
0.68500000238419	-0.031164861272433
0.68750000000000	-0.033842859803149
0.68999999761581	-0.036466230882188
0.69249999523163	-0.038652428282499
0.69499999284744	-0.040076505502180
0.69749999046326	-0.040522905180467
0.69999998807907	-0.039921616812000
0.70249998569489	-0.038355544703217
0.70499998331070	-0.036052076114799
0.70749998092651	-0.033346405140444
0.70999997854233	-0.030637867037272
0.71249997615814	-0.028326541253499
0.71499997377396	-0.026756431518809
0.71749997138977	-0.026166918941389
0.72000002861023	-0.026652226568353
0.72250002622604	-0.028152038581706
0.72500002384186	-0.030454800213480
0.72750002145767	-0.033231916063744
0.73000001907349	-0.036079129889193
0.73250001668930	-0.038580579344421
0.73500001430511	-0.040365114318104
0.73750001192093	-0.041165065210975
0.74000000953674	-0.040857346416303
0.74250000715256	-0.039481015319949
0.74500000476837	-0.037234233067423
0.74750000238419	-0.034444294281526
0.75000000000000	-0.031522928426341
0.75249999761581	-0.028899948253913
0.75499999523163	-0.026967035634200
0.75749999284744	-0.026015709672949
0.75999999046326	-0.026196568821163
0.76249998807907	-0.027493346466583
0.76499998569489	-0.029728997125713
0.76749998331070	-0.032583351881927
0.76999998092651	-0.035644378897179
0.77249997854233	-0.038464656423807
0.77499997615814	-0.040627639003941
0.77749997377396	-0.041811716104908
0.77999997138977	-0.041833653201154
0.78250002861023	-0.040686446932871
0.78500002622604	-0.038530780514935
0.78750002384186	-0.035681971571096
0.79000002145767	-0.032557449361924
0.79250001907349	-0.029619880905783
0.79500001668930	-0.027305913229221
0.79750001430511	-0.025964273663418
0.80000001192093	-0.025803448266209
0.80250000953674	-0.026860612646229
0.80500000715256	-0.028992371232314
0.80750000476837	-0.031898375905616
0.81000000238419	-0.035160847082636
0.81250000000000	-0.038304833141068
0.81499999761581	-0.040866259635728
0.81749999523163	-0.042465995530901
0.81999999284744	-0.042859275155616
0.82249999046326	-0.041981876208023
0.82499998807907	-0.039956723237521
0.82749998569489	-0.037075706267655
0.82999998331070	-0.033761699980556
0.83249998092651	-0.030505416274952
0.83499997854233	-0.027789518495511
0.83749997615814	-0.026022929229468
0.83999997377396	-0.025477897755438
0.84249997138977	-0.026247397905697
0.84500002861023	-0.028234799412306
0.84750002622604	-0.031163609022039
0.85000002384186	-0.034613580324724
0.85250002145767	-0.038083373946083
0.85500001907349	-0.041065961785849
0.85750001668930	-0.043116372782820
0.86000001430511	-0.043926897417310
0.86250001192093	-0.043368338693725
0.86500000953674	-0.041512939204456
0.86750000715256	-0.038630329129054
0.87000000476837	-0.035142218241486
0.87250000238419	-0.031561055661149
0.87500000000000	-0.028419638335851
0.87749999761581	-0.026188244199177
0.87999999523163	-0.025208327456104
0.88249999284744	-0.025640817508858
0.88499999046326	-0.027437672091764
0.88749998807907	-0.030353258221346
0.88999998569489	-0.033972764011870
0.89249998331070	-0.037773842129938
0.89499998092651	-0.041199374625153
0.89749997854233	-0.043743079650429
0.89999997615814	-0.045022454765535
0.90249997377396	-0.044836798946336
0.90499997138977	-0.043205605178515
0.90750002861023	-0.040359373354927
0.91000002622604	-0.036713867068565
0.91250002384186	-0.032803866840295
0.91500002145767	-0.029211845981487
0.91750001907349	-0.026472086694025
0.92000001668930	-0.025001580208300
0.92250001430511	-0.025034707886453
0.92500001192093	-0.026586176515075
0.92750000953674	-0.029445965791130
0.93000000715256	-0.033216112804171
0.93250000476837	-0.037350820110310
0.93500000238419	-0.041249211785782
0.93750000000000	-0.044334611884726
0.93999999761581	-0.046143155911515
0.94249999523163	-0.046400199757426
0.94499999284744	-0.045052986945303
0.94749999046326	-0.042290922490630
0.94999998807907	-0.038512401098265
0.95249998569489	-0.034274551270569
0.95499998331070	-0.030202473109410
0.95749998092651	-0.026903959559748
0.95999997854233	-0.024878691315469
0.96249997615814	-0.024443301440013
0.96499997377396	-0.025683935267831
0.96749997138977	-0.028442417936134
0.97000002861023	-0.032336590621948
0.97250002622604	-0.036807703478182
0.97500002384186	-0.041209282004976
0.97750002145767	-0.044893629611364
0.98000001907349	-0.047308457649544
0.98250001668930	-0.048087571357455
0.98500001430511	-0.047101343957856
0.98750001192093	-0.044481130243613
0.99000000953674	-0.040603645070025
0.99250000715256	-0.036038706010798
0.99500000476837	-0.031456838401295
0.99750000238419	-0.027543333994391
1.0000000000000	-0.024887575961532
1.0025000572205	-0.023900478926255
1.0049999952316	-0.024752336768016
1.0075000524521	-0.027347368898002
1.0099999904633	-0.031331570708680
1.0125000476837	-0.036140394468241
1.0149999856949	-0.041080998780816
1.0175000429153	-0.045429487065267
1.0199999809265	-0.048538314038876
1.0225000381470	-0.049938112069290
1.0249999761581	-0.049403727710170
1.0275000333786	-0.046999649458786
1.0299999713898	-0.043067727659802
1.0325000286102	-0.038180229317486
1.0349999666214	-0.033056801073512
1.0375000238419	-0.028460647051781
1.0399999618530	-0.025082775417644
1.0425000190735	-0.023443022234284
1.0449999570847	-0.023809558016939
1.0475000143051	-0.026163462620595
1.0499999523163	-0.030192377221682
1.0525000095367	-0.035334359497547
1.0549999475479	-0.040851288700442
1.0575000047684	-0.045939854123584
1.0599999427795	-0.049847705913468
1.0625000000000	-0.051985264642173
1.0650000572205	-0.052018735277794
1.0674999952316	-0.049922972370457
1.0700000524521	-0.045991218923786
1.0724999904633	-0.040792683452384
1.0750000476837	-0.035092731570092
1.0774999856949	-0.029736009405569
1.0800000429153	-0.025526325608620
1.0824999809265	-0.023107157165389
1.0850000381470	-0.022867140362268
1.0874999761581	-0.024881043078374
1.0900000333786	-0.028892374869199
1.0924999713898	-0.034353500444521
1.0950000286102	-0.040485688249957
1.0974999666214	-0.046404247593903
1.1000000238419	-0.051236554258896
1.1024999618530	-0.054258989311721
1.1050000190735	-0.055001586995750
1.1074999570847	-0.053335127388000
1.1100000143051	-0.049481567600448
1.1124999523163	-0.043995837209328
1.1150000095367	-0.037682372421173
1.1174999475479	-0.031473362216677
1.1200000047684	-0.026299136174100
1.1224999427795	-0.022946175337783
1.1250000000000	-0.021946110763040
1.1275000572205	-0.023488921147563
1.1299999952316	-0.027402450985328
1.1325000524521	-0.033157967857449
1.1349999904633	-0.039949851884835
1.1375000476837	-0.046804447426657
1.1399999856949	-0.052717967415437
1.1425000429153	-0.056807693485748
1.1449999809265	-0.058449242030135
1.1475000381470	-0.057369554954807
1.1499999761581	-0.053704864411975
1.1525000333786	-0.047971274695561
1.1549999713898	-0.041007045180842
1.1575000286102	-0.033840279510598
1.1599999666214	-0.027539692003798
1.1625000238419	-0.023061310509954
1.1649999618530	-0.021104045256082
1.1675000190735	-0.022011244884416
1.1699999570847	-0.025711974992275
1.1725000143051	-0.031724880717547
1.1749999523163	-0.039223034294195
1.1775000095367	-0.047142804443013
1.1799999475479	-0.054334615355349
1.1825000047684	-0.059732316063518
1.1849999427795	-0.062515790446625
1.1875000000000	-0.062242919682753
1.1900000572205	-0.058918363722472
1.1924999952316	-0.053006166544280
1.1950000524521	-0.045362870959459
1.1974999904633	-0.037114201979770
1.2000000476837	-0.029488916158339
1.2024999856949	-0.023638376387747
1.2050000429153	-0.020469991464348
1.2074999809265	-0.020517091346155
1.2100000381470	-0.023849659260197
1.2124999761581	-0.030061391028389
1.2150000333786	-0.038317178096120
1.2174999713898	-0.047463645903872
1.2200000286102	-0.056187498110699
1.2224999666214	-0.063207734242837
1.2250000238419	-0.067465986877030
1.2274999618530	-0.068298286403768
1.2300000190735	-0.065537567422050
1.2324999570847	-0.059556652410497
1.2350000143051	-0.051215226630683
1.2374999523163	-0.041738607372127
1.2400000095367	-0.032534877805528
1.2424999475479	-0.024992122436362
1.2450000047684	-0.020275987176560
1.2474999427795	-0.019158270982325
1.2500000000000	-0.021901448044703
1.2525000572205	-0.028216908599452
1.2549999952316	-0.037282877477473
1.2575000524521	-0.047860611341334
1.2599999904633	-0.058455213324263
1.2625000476837	-0.067524902147498
1.2649999856949	-0.073718189274177
1.2675000429153	-0.076083005641233
1.2699999809265	-0.074216460408786
1.2725000381470	-0.068347673121546
1.2749999761581	-0.059312167048939
1.2775000333786	-0.048430234713268
1.2799999713898	-0.037319670912241
1.2825000286102	-0.027654698038246
1.2849999666214	-0.020922283249745
1.2875000238419	-0.018212872556906
1.2899999618530	-0.020049557951208
1.2925000190735	-0.026315650192631
1.2949999570847	-0.036249180342799
1.2975000143051	-0.048530409307149
1.2999999523163	-0.061460127994351
1.3025000095367	-0.073186494370375
1.3049999475479	-0.081984425156665
1.3075000047684	-0.086515762559547
1.3099999427795	-0.086051142439877
1.3125000000000	-0.080597816081372
1.3150000572205	-0.070917230645598
1.3174999952316	-0.058421528996934
1.3200000524521	-0.044964318127718
1.3224999904633	-0.032574951653996
1.3250000476837	-0.023161067427834
1.3274999856949	-0.018234179629308
1.3300000429153	-0.018689746098589
1.3324999809265	-0.024673028680479
1.3350000381470	-0.035537299727902
1.3374999761581	-0.049910100743968
1.3400000333786	-0.065861200011118
