#Parameters = {L=39; e=0.035; h=1.6; i=0.8; l1=4; ls=132; wl=1.7; ws=30}
#"Frequency / GHz"	"S1,1 (4) [Magnitude]"
#----------------------------------------
0.0000000000000	-0.00027543106988087
0.0040000001899898	-0.00027944622394335
0.0080000003799796	-0.00029097451476876
0.012000000104308	-0.00031157084849347
0.016000000759959	-0.00033761384749658
0.019999999552965	-0.00037324938060760
0.024000000208616	-0.00041434040968251
0.028000000864267	-0.00046451732782011
0.032000001519918	-0.00052223391119176
0.035999998450279	-0.00058646286552775
0.039999999105930	-0.00065721323762431
0.043999999761581	-0.00073604839492295
0.048000000417233	-0.00082142576689548
0.052000001072884	-0.00091283961986551
0.056000001728535	-0.0010113379702000
0.059999998658895	-0.0011158985471894
0.064000003039837	-0.0012270532118164
0.068000003695488	-0.0013427449434905
0.071999996900558	-0.0014650607151131
0.075999997556210	-0.0015909092076388
0.079999998211861	-0.0017239303600095
0.083999998867512	-0.0018599991995281
0.087999999523163	-0.0020022391496144
0.092000000178814	-0.0021470405745425
0.096000000834465	-0.0022964941205300
0.10000000149012	-0.0024495794515404
0.10400000214577	-0.0026047598158048
0.10800000280142	-0.0027646420400977
0.11200000345707	-0.0029261346531110
0.11599999666214	-0.0030882178677549
0.11999999731779	-0.0032540153666826
0.12399999797344	-0.0034204343597659
0.12800000607967	-0.0035885253361019
0.13199999928474	-0.0037567466677376
0.13600000739098	-0.0039256334845835
0.14000000059605	-0.0040941564779022
0.14399999380112	-0.0042628474850401
0.14800000190735	-0.0044301641848525
0.15199999511242	-0.0045971484660413
0.15600000321865	-0.0047617368807374
0.15999999642372	-0.0049254900330165
0.16400000452995	-0.0050868609723393
0.16799999773502	-0.0052442955356355
0.17200000584126	-0.0054003872669214
0.17599999904633	-0.0055515083665431
0.18000000715256	-0.0057002492165992
0.18400000035763	-0.0058445341384943
0.18799999356270	-0.0059848755290878
0.19200000166893	-0.0061202274922097
0.19599999487400	-0.0062511045804612
0.20000000298023	-0.0063764538005966
0.20399999618530	-0.0064957508525707
0.20800000429153	-0.0066094873402397
0.21199999749660	-0.0067166188237723
0.21600000560284	-0.0068186751427462
0.21999999880791	-0.0069130468840878
0.22400000691414	-0.0070007431595379
0.22800000011921	-0.0070817401337189
0.23199999332428	-0.0071549668262635
0.23600000143051	-0.0072203978991402
0.23999999463558	-0.0072790335650891
0.24400000274181	-0.0073292800182995
0.24799999594688	-0.0073711029930638
0.25200000405312	-0.0074054989784524
0.25600001215935	-0.0074318988935224
0.25999999046326	-0.0074502669634984
0.26399999856949	-0.0074589896991348
0.26800000667572	-0.0074590682550039
0.27200001478195	-0.0074519980029699
0.27599999308586	-0.0074356440595298
0.28000000119209	-0.0074109887698469
0.28400000929832	-0.0073784955487322
0.28799998760223	-0.0073370707458999
0.29199999570847	-0.0072866480433553
0.29600000381470	-0.0072281971406041
0.30000001192093	-0.0071616519106689
0.30399999022484	-0.0070874560910360
0.30799999833107	-0.0070050322959402
0.31200000643730	-0.0069143085117645
0.31600001454353	-0.0068177885401057
0.31999999284744	-0.0067123013264027
0.32400000095367	-0.0066003615357361
0.32800000905991	-0.0064808507096146
0.33199998736382	-0.0063542186603720
0.33599999547005	-0.0062214033653483
0.34000000357628	-0.0060828612840257
0.34400001168251	-0.0059385043166906
0.34799998998642	-0.0057877315955408
0.35199999809265	-0.0056325379781532
0.35600000619888	-0.0054733455353441
0.36000001430511	-0.0053085499536366
0.36399999260902	-0.0051390691749867
0.36800000071526	-0.0049674356331149
0.37200000882149	-0.0047914672360518
0.37599998712540	-0.0046121582511625
0.37999999523163	-0.0044309402741548
0.38400000333786	-0.0042477677986062
0.38800001144409	-0.0040625462943130
0.39199998974800	-0.0038762230801225
0.39599999785423	-0.0036897690201186
0.40000000596046	-0.0035025698412288
0.40400001406670	-0.0033150920086573
0.40799999237061	-0.0031282978634216
0.41200000047684	-0.0029441660853571
0.41600000858307	-0.0027605786917857
0.41999998688698	-0.0025779607288511
0.42399999499321	-0.0023988567846821
0.42800000309944	-0.0022226736654102
0.43200001120567	-0.0020503831001022
0.43599998950958	-0.0018819267252282
0.43999999761581	-0.0017182827913332
0.44400000572205	-0.0015593928796958
0.44800001382828	-0.0014046912203607
0.45199999213219	-0.0012582724980123
0.45600000023842	-0.0011159552232290
0.46000000834465	-0.00098078366108295
0.46399998664856	-0.00085272996062203
0.46799999475479	-0.00073226665196378
0.47200000286102	-0.00061988937901880
0.47600001096725	-0.00051607197526411
0.47999998927116	-0.00042027599813779
0.48399999737740	-0.00033401255200970
0.48800000548363	-0.00025572515555173
0.49200001358986	-0.00018900583235320
0.49599999189377	-0.00013023782229494
0.50000000000000	-8.2999089420938e-05
0.50400000810623	-4.6782375331188e-05
0.50800001621246	-2.0536374489495e-05
0.51200002431870	-4.2796545560441e-06
0.51599997282028	-4.4899688699109e-08
0.51999998092651	-7.8450332679389e-06
0.52399998903275	-2.5642104805150e-05
0.52799999713898	-5.5489623739820e-05
0.53200000524521	-9.6362905380972e-05
0.53600001335144	-0.00014930888723855
0.54000002145767	-0.00021436769900790
0.54400002956390	-0.00029147595517975
0.54799997806549	-0.00037972238343226
0.55199998617172	-0.00047957758801743
0.55599999427795	-0.00059052269162475
0.56000000238419	-0.00071264404298171
0.56400001049042	-0.00084797139437073
0.56800001859665	-0.00099403321721955
0.57200002670288	-0.0011513065850019
0.57599997520447	-0.0013187501445401
0.57999998331070	-0.0014985107553879
0.58399999141693	-0.0016864393311419
0.58799999952316	-0.0018857115051897
0.59200000762939	-0.0020952343902720
0.59600001573563	-0.0023140709203412
0.60000002384186	-0.0025421934101625
0.60399997234344	-0.0027791615532173
0.60799998044968	-0.0030243981583602
0.61199998855591	-0.0032774459085751
0.61599999666214	-0.0035388325005301
0.62000000476837	-0.0038064269389740
0.62400001287460	-0.0040813922176891
0.62800002098083	-0.0043615580739060
0.63200002908707	-0.0046490300875601
0.63599997758865	-0.0049412094151689
0.63999998569489	-0.0052370313109822
0.64399999380112	-0.0055365168760242
0.64800000190735	-0.0058411781489245
0.65200001001358	-0.0061478422340997
0.65600001811981	-0.0064570631871200
0.66000002622604	-0.0067677112088486
0.66399997472763	-0.0070797860693116
0.66799998283386	-0.0073926888401296
0.67199999094009	-0.0077053086695208
0.67599999904633	-0.0080160456712501
0.68000000715256	-0.0083258736591784
0.68400001525879	-0.0086342118428189
0.68800002336502	-0.0089403869251094
0.69199997186661	-0.0092417515308439
0.69599997997284	-0.0095403402549449
0.69999998807907	-0.0098348710824186
0.70399999618530	-0.010124268222881
0.70800000429153	-0.010406851788401
0.71200001239777	-0.010685573554537
0.71600002050400	-0.010955619754047
0.72000002861023	-0.011218965528746
0.72399997711182	-0.011474310254271
0.72799998521805	-0.011721003573794
0.73199999332428	-0.011959460324961
0.73600000143051	-0.012188829104831
0.74000000953674	-0.012407991107164
0.74400001764297	-0.012617203628200
0.74800002574921	-0.012815726585588
0.75199997425079	-0.013003959558655
0.75599998235703	-0.013179987167594
0.75999999046326	-0.013345167625939
0.76399999856949	-0.013498771092646
0.76800000667572	-0.013639909376789
0.77200001478195	-0.013769523621047
0.77600002288818	-0.013885140464805
0.77999997138977	-0.013988578838774
0.78399997949600	-0.014079114488610
0.78799998760223	-0.014157944168956
0.79199999570847	-0.014223186474576
0.79600000381470	-0.014275653155775
0.80000001192093	-0.014315509921473
0.80400002002716	-0.014342490980956
0.80800002813339	-0.014357230998737
0.81199997663498	-0.014358947117246
0.81599998474121	-0.014348851916383
0.81999999284744	-0.014326632366831
0.82400000095367	-0.014292955561772
0.82800000905991	-0.014247076191907
0.83200001716614	-0.014190072903965
0.83600002527237	-0.014123748990171
0.83999997377396	-0.014045713936972
0.84399998188019	-0.013958716720424
0.84799998998642	-0.013861874089313
0.85199999809265	-0.013755930172238
0.85600000619888	-0.013642605971499
0.86000001430511	-0.013520527419391
0.86400002241135	-0.013392949096079
0.86799997091293	-0.013258516253779
0.87199997901917	-0.013118008592139
0.87599998712540	-0.012973121235050
0.87999999523163	-0.012824120709875
0.88400000333786	-0.012673104913382
0.88800001144409	-0.012517871626872
0.89200001955032	-0.012361134943516
0.89600002765656	-0.012203207107895
0.89999997615814	-0.012046760630216
0.90399998426437	-0.011890117918288
0.90799999237061	-0.011735502043663
0.91200000047684	-0.011583149731819
0.91600000858307	-0.011435934774272
0.92000001668930	-0.011293082148403
0.92400002479553	-0.011155386141399
0.92799997329712	-0.011023638542592
0.93199998140335	-0.010900765847718
0.93599998950958	-0.010786016773443
0.93999999761581	-0.010679805635887
0.94400000572205	-0.010584323132985
0.94800001382828	-0.010500045588419
0.95200002193451	-0.010427886164846
0.95599997043610	-0.010369626238868
0.95999997854233	-0.010326175980733
0.96399998664856	-0.010296511359823
0.96799999475479	-0.010282911206943
0.97200000286102	-0.010285921882142
0.97600001096725	-0.010306456243218
0.98000001907349	-0.010345358370251
0.98400002717972	-0.010403748155660
0.98799997568130	-0.010482401777486
0.99199998378754	-0.010580945435906
0.99599999189377	-0.010701225210413
1.0000000000000	-0.010843443241912
1.0039999485016	-0.011009447797555
1.0080000162125	-0.011196599698793
1.0119999647141	-0.011408815929754
1.0160000324249	-0.011644744789426
1.0199999809265	-0.011906101255110
1.0240000486374	-0.012192264268592
1.0279999971390	-0.012503074437336
1.0319999456406	-0.012840525651026
1.0360000133514	-0.013204228630521
1.0399999618530	-0.013594216215613
1.0440000295639	-0.014010537680684
1.0479999780655	-0.014452940602542
1.0520000457764	-0.014923192613008
1.0559999942780	-0.015418889303506
1.0599999427795	-0.015942059769160
1.0640000104904	-0.016490309254857
1.0679999589920	-0.017066572324253
1.0720000267029	-0.017669114930163
1.0759999752045	-0.018296764291739
1.0800000429153	-0.018950499083051
1.0839999914169	-0.019629764756501
1.0880000591278	-0.020332378461210
1.0920000076294	-0.021061065325327
1.0959999561310	-0.021813264718222
1.1000000238419	-0.022588318960659
1.1039999723434	-0.023386207230271
1.1080000400543	-0.024206037878004
1.1119999885559	-0.025047697054820
1.1160000562668	-0.025909641316054
1.1200000047684	-0.026791546123356
1.1239999532700	-0.027691796733747
1.1280000209808	-0.028611377371341
1.1319999694824	-0.029547192527620
1.1360000371933	-0.030499588109178
1.1399999856949	-0.031467096576895
1.1440000534058	-0.032448838293788
1.1480000019073	-0.033444325139505
1.1519999504089	-0.034451269764375
1.1560000181198	-0.035468537422458
1.1599999666214	-0.036497359546979
1.1640000343323	-0.037534117345467
1.1679999828339	-0.038578824006220
1.1720000505447	-0.039629324926930
1.1759999990463	-0.040687323772637
1.1799999475479	-0.041748293940929
1.1840000152588	-0.042812774325812
1.1879999637604	-0.043879162615310
1.1920000314713	-0.044945630039785
1.1959999799728	-0.046013313017093
1.2000000476837	-0.047079302194549
1.2039999961853	-0.048142364915870
1.2079999446869	-0.049202324872590
1.2120000123978	-0.050258600032939
1.2159999608994	-0.051307309594105
1.2200000286102	-0.052351563585249
1.2239999771118	-0.053386762669304
1.2280000448227	-0.054414046756557
1.2319999933243	-0.055432894373757
1.2359999418259	-0.056441108937423
1.2400000095367	-0.057438534510193
1.2439999580383	-0.058424502704175
1.2480000257492	-0.059398540312591
1.2519999742508	-0.060359658218409
1.2560000419617	-0.061308608123454
1.2599999904633	-0.062242151274681
1.2640000581741	-0.063161777355173
1.2680000066757	-0.064066926576746
1.2719999551773	-0.064958571341428
1.2760000228882	-0.065834275945615
1.2799999713898	-0.066695359747744
1.2840000391006	-0.067541292643611
1.2879999876022	-0.068371711380157
1.2920000553131	-0.069187877276943
1.2960000038147	-0.069989307786087
1.2999999523163	-0.070775276955902
1.3040000200272	-0.071548526440872
1.3079999685287	-0.072308137300989
1.3120000362396	-0.073054378221679
1.3159999847412	-0.073789378464841
1.3200000524521	-0.074511338203540
1.3240000009537	-0.075223783433946
1.3279999494553	-0.075926242128747
1.3320000171661	-0.076619759217361
1.3359999656677	-0.077305194463441
1.3400000333786	-0.077984237468676
1.3439999818802	-0.078658447511592
1.3480000495911	-0.079328881572510
1.3519999980927	-0.079995943177538
1.3559999465942	-0.080662981535458
1.3600000143051	-0.081329234224729
1.3639999628067	-0.081999970430251
1.3680000305176	-0.082672591181521
1.3719999790192	-0.083353527330037
1.3760000467300	-0.084040244166014
1.3799999952316	-0.084737451750696
1.3839999437332	-0.085444692118698
1.3880000114441	-0.086166993995900
1.3919999599457	-0.086904551576453
1.3960000276566	-0.087659991352552
1.3999999761581	-0.088436280062313
1.4040000438690	-0.089235193927559
1.4079999923706	-0.090058602209806
1.4119999408722	-0.090908816065226
1.4160000085831	-0.091788724497978
1.4199999570847	-0.092699905359616
1.4240000247955	-0.093646379249799
1.4279999732971	-0.094629343398868
1.4320000410080	-0.095651267901422
1.4359999895096	-0.096713553556167
1.4400000572205	-0.097821692256441
1.4440000057220	-0.098976232567909
1.4479999542236	-0.10017890526674
1.4520000219345	-0.10143388361135
1.4559999704361	-0.10274262448336
1.4600000381470	-0.10410683846293
1.4639999866486	-0.10553088912249
1.4680000543594	-0.10701462488147
1.4720000028610	-0.10856356651546
1.4759999513626	-0.11017672473470
1.4800000190735	-0.11185859650143
1.4839999675751	-0.11360957428618
1.4880000352859	-0.11543402261435
1.4919999837875	-0.11733237528376
1.4960000514984	-0.11930606576870
1.5000000000000	-0.12136042469130
1.5039999485016	-0.12349283490882
1.5080000162125	-0.12570772095658
1.5119999647141	-0.12800690827591
1.5160000324249	-0.13039150621112
1.5199999809265	-0.13286341341847
1.5240000486374	-0.13542388095399
1.5279999971390	-0.13807410695006
1.5319999456406	-0.14081535314132
1.5360000133514	-0.14364942062002
1.5399999618530	-0.14657758225086
1.5440000295639	-0.14959985092371
1.5479999780655	-0.15271859699632
1.5520000457764	-0.15593295305246
1.5559999942780	-0.15924557183897
1.5599999427795	-0.16265533905389
1.5640000104904	-0.16616446880834
1.5679999589920	-0.16977248712174
1.5720000267029	-0.17347937868419
1.5759999752045	-0.17728675910959
1.5800000429153	-0.18119244016568
1.5839999914169	-0.18519861863144
1.5880000591278	-0.18930521008492
1.5920000076294	-0.19351100081572
1.5959999561310	-0.19781665962764
1.6000000238419	-0.20222101362290
1.6039999723434	-0.20672424864981
1.6080000400543	-0.21132654711303
1.6119999885559	-0.21602529384720
1.6160000562668	-0.22082241832487
1.6200000047684	-0.22571501128317
1.6239999532700	-0.23070335695094
1.6280000209808	-0.23578760562390
1.6319999694824	-0.24096454670879
1.6360000371933	-0.24623424533676
1.6399999856949	-0.25159682202169
1.6440000534058	-0.25705041424734
1.6480000019073	-0.26259449496074
1.6519999504089	-0.26822659804935
1.6560000181198	-0.27394682986050
1.6599999666214	-0.27975416529779
1.6640000343323	-0.28564663297237
1.6679999828339	-0.29162452591124
1.6720000505447	-0.29768503608202
1.6759999990463	-0.30382775689672
1.6799999475479	-0.31005192847808
1.6840000152588	-0.31635673386257
1.6879999637604	-0.32274110275856
1.6920000314713	-0.32920463578367
1.6959999799728	-0.33574473993140
1.7000000476837	-0.34236272457592
1.7039999961853	-0.34905629833467
1.7079999446869	-0.35582706453019
1.7120000123978	-0.36267183986536
1.7159999608994	-0.36959216624928
1.7200000286102	-0.37658680103201
1.7239999771118	-0.38365627639536
1.7280000448227	-0.39080069826094
1.7319999933243	-0.39802043083029
1.7359999418259	-0.40531607787772
1.7400000095367	-0.41268706650577
1.7439999580383	-0.42013462417752
1.7480000257492	-0.42766113044834
1.7519999742508	-0.43526598416821
1.7560000419617	-0.44295070064224
1.7599999904633	-0.45071773853119
1.7640000581741	-0.45856744322129
1.7680000066757	-0.46650520268233
1.7719999551773	-0.47452956910837
1.7760000228882	-0.48264555554724
1.7799999713898	-0.49085351481688
1.7840000391006	-0.49915936939124
1.7879999876022	-0.50756389213557
1.7920000553131	-0.51607391702430
1.7960000038147	-0.52469072343115
1.7999999523163	-0.53342007445944
1.8040000200272	-0.54226561414783
1.8079999685287	-0.55123325716787
1.8120000362396	-0.56032710874154
1.8159999847412	-0.56955350468572
1.8200000524521	-0.57891784613445
1.8240000009537	-0.58842691503419
1.8279999494553	-0.59808464377671
1.8320000171661	-0.60790297262035
1.8359999656677	-0.61788472722842
1.8400000333786	-0.62803919872299
1.8439999818802	-0.63837359727380
1.8480000495911	-0.64889620715893
1.8519999980927	-0.65961662297680
1.8559999465942	-0.67054322926594
1.8600000143051	-0.68168502260207
1.8639999628067	-0.69305056331031
1.8680000305176	-0.70465130483987
1.8719999790192	-0.71649626153690
1.8760000467300	-0.72859770878866
1.8799999952316	-0.74096513934832
1.8839999437332	-0.75361015963251
1.8880000114441	-0.76654347621159
1.8919999599457	-0.77978002682587
1.8960000276566	-0.79332858194632
1.8999999761581	-0.80720388044099
1.9040000438690	-0.82141850089028
1.9079999923706	-0.83598293893874
1.9119999408722	-0.85091497653023
1.9160000085831	-0.86622500452392
1.9199999570847	-0.88193084723357
1.9240000247955	-0.89804205108744
1.9279999732971	-0.91457549849620
1.9320000410080	-0.93154775936174
1.9359999895096	-0.94897320208109
1.9400000572205	-0.96686646446070
1.9440000057220	-0.98524297311039
1.9479999542236	-1.0041195974536
1.9520000219345	-1.0235138188295
1.9559999704361	-1.0434411843737
1.9600000381470	-1.0639170572675
1.9639999866486	-1.0849603834694
1.9680000543594	-1.1065888451370
1.9720000028610	-1.1288181756986
1.9759999513626	-1.1516678630915
1.9800000190735	-1.1751539926687
1.9839999675751	-1.1992968140635
1.9880000352859	-1.2241158568424
1.9919999837875	-1.2496262053223
1.9960000514984	-1.2758497915090
2.0000000000000	-1.3028057537999
2.0039999485016	-1.3305115105920
2.0079998970032	-1.3589864913153
2.0120000839233	-1.3882537947107
2.0160000324249	-1.4183310322350
2.0199999809265	-1.4492381001143
2.0239999294281	-1.4809973287787
2.0280001163483	-1.5136288910790
2.0320000648499	-1.5471517956911
2.0360000133514	-1.5815898381182
2.0399999618530	-1.6169639684115
2.0439999103546	-1.6532946171694
2.0480000972748	-1.6906039169547
2.0520000457764	-1.7289151503517
2.0559999942780	-1.7682497422571
2.0599999427795	-1.8086301269007
2.0639998912811	-1.8500795555281
2.0680000782013	-1.8926210260365
2.0720000267029	-1.9362777359068
2.0759999752045	-1.9810737487980
2.0799999237061	-2.0270331195340
2.0840001106262	-2.0741789212663
2.0880000591278	-2.1225370237935
2.0920000076294	-2.1721310833322
2.0959999561310	-2.2229878680985
2.0999999046326	-2.2751306015672
2.1040000915527	-2.3285864308169
2.1080000400543	-2.3833814287084
2.1119999885559	-2.4395421784935
2.1159999370575	-2.4970961272435
2.1199998855591	-2.5560685177761
2.1240000724792	-2.6164881712106
2.1280000209808	-2.6783847896218
2.1319999694824	-2.7417852323378
2.1359999179840	-2.8067170240081
2.1400001049042	-2.8732116385094
2.1440000534058	-2.9412989701650
2.1480000019073	-3.0110088722997
2.1519999504089	-3.0823740748965
2.1559998989105	-3.1554227188367
2.1600000858307	-3.2301875926051
2.1640000343323	-3.3067046218258
2.1679999828339	-3.3850033313428
2.1719999313354	-3.4651187129852
