#Parameters = {L=39; e=0.035; h=1.6; i=0.8; l1=4; ls=120; wl=1.7; ws=33}
#"Frequency / GHz"	"S1,1 (3) [Magnitude]"
#----------------------------------------
0.0000000000000	-0.00029096315727807
0.0040000001899898	-0.00029446513844823
0.0080000003799796	-0.00030600708745380
0.012000000104308	-0.00032455509142998
0.016000000759959	-0.00035011179153131
0.019999999552965	-0.00038371629095855
0.024000000208616	-0.00042330227304795
0.028000000864267	-0.00047146416885332
0.032000001519918	-0.00052613757246424
0.035999998450279	-0.00058733009320716
0.039999999105930	-0.00065505029170773
0.043999999761581	-0.00073137827964633
0.048000000417233	-0.00081321807180007
0.052000001072884	-0.00090109816614077
0.056000001728535	-0.00099503033384520
0.059999998658895	-0.0010939916162953
0.064000003039837	-0.0012000657234842
0.068000003695488	-0.0013122314953100
0.071999996900558	-0.0014289484880914
0.075999997556210	-0.0015512685618167
0.079999998211861	-0.0016766167276769
0.083999998867512	-0.0018081141938505
0.087999999523163	-0.0019431884316706
0.092000000178814	-0.0020828915247528
0.096000000834465	-0.0022256841347600
0.10000000149012	-0.0023731371944000
0.10400000214577	-0.0025216398524570
0.10800000280142	-0.0026753517965381
0.11200000345707	-0.0028296270658662
0.11599999666214	-0.0029875872901066
0.11999999731779	-0.0031451046927216
0.12399999797344	-0.0033058186603692
0.12800000607967	-0.0034676716667833
0.13199999928474	-0.0036291206180080
0.13600000739098	-0.0037922525954532
0.14000000059605	-0.0039539666536426
0.14399999380112	-0.0041168653503366
0.14800000190735	-0.0042794042356048
0.15199999511242	-0.0044390031837324
0.15600000321865	-0.0045977402319748
0.15999999642372	-0.0047556172335406
0.16400000452995	-0.0049110874639268
0.16799999773502	-0.0050646727849786
0.17200000584126	-0.0052148213617671
0.17599999904633	-0.0053625669818818
0.18000000715256	-0.0055063503137269
0.18400000035763	-0.0056461750911028
0.18799999356270	-0.0057825502166715
0.19200000166893	-0.0059139146930278
0.19599999487400	-0.0060402635722500
0.20000000298023	-0.0061631306999990
0.20399999618530	-0.0062794021901530
0.20800000429153	-0.0063911328883686
0.21199999749660	-0.0064957125849527
0.21600000560284	-0.0065957188923372
0.21999999880791	-0.0066885354191957
0.22400000691414	-0.0067751779282128
0.22800000011921	-0.0068540615107309
0.23199999332428	-0.0069267124027920
0.23600000143051	-0.0069920668541937
0.23999999463558	-0.0070506076264969
0.24400000274181	-0.0071012716186294
0.24799999594688	-0.0071445264776239
0.25200000405312	-0.0071803399649758
0.25600001215935	-0.0072076340747059
0.25999999046326	-0.0072268844814377
0.26399999856949	-0.0072380332833278
0.26800000667572	-0.0072420816657156
0.27200001478195	-0.0072363889951805
0.27599999308586	-0.0072239953185334
0.28000000119209	-0.0072022733282429
0.28400000929832	-0.0071727033115572
0.28799998760223	-0.0071347132092340
0.29199999570847	-0.0070898058884253
0.29600000381470	-0.0070353201181157
0.30000001192093	-0.0069742958130812
0.30399999022484	-0.0069040913339126
0.30799999833107	-0.0068277182021162
0.31200000643730	-0.0067430623327555
0.31600001454353	-0.0066505572889078
0.31999999284744	-0.0065506440543429
0.32400000095367	-0.0064442881246104
0.32800000905991	-0.0063309090052166
0.33199998736382	-0.0062104098405372
0.33599999547005	-0.0060842825608452
0.34000000357628	-0.0059529473564195
0.34400001168251	-0.0058142787276156
0.34799998998642	-0.0056707690495334
0.35199999809265	-0.0055218220249705
0.35600000619888	-0.0053683937851885
0.36000001430511	-0.0052104123697783
0.36399999260902	-0.0050483032861926
0.36800000071526	-0.0048819798702381
0.37200000882149	-0.0047118992196971
0.37599998712540	-0.0045400232863266
0.37999999523163	-0.0043652589232727
0.38400000333786	-0.0041870042778221
0.38800001144409	-0.0040087934193252
0.39199998974800	-0.0038279776455234
0.39599999785423	-0.0036470509004130
0.40000000596046	-0.0034643941819260
0.40400001406670	-0.0032840637884163
0.40799999237061	-0.0031023713497989
0.41200000047684	-0.0029223402767752
0.41600000858307	-0.0027428774471160
0.41999998688698	-0.0025649370033401
0.42399999499321	-0.0023915861349722
0.42800000309944	-0.0022180512700861
0.43200001120567	-0.0020489573046544
0.43599998950958	-0.0018852900814851
0.43999999761581	-0.0017238682319960
0.44400000572205	-0.0015682584599335
0.44800001382828	-0.0014158296098350
0.45199999213219	-0.0012706554656706
0.45600000023842	-0.0011306346057085
0.46000000834465	-0.00099726073404874
0.46399998664856	-0.00087102823111832
0.46799999475479	-0.00075083721281456
0.47200000286102	-0.00063874132146188
0.47600001096725	-0.00053520676171744
0.47999998927116	-0.00043865911249409
0.48399999737740	-0.00035116249185767
0.48800000548363	-0.00027265576807597
0.49200001358986	-0.00020417670696161
0.49599999189377	-0.00014413199777598
0.50000000000000	-9.4597726955028e-05
0.50400000810623	-5.5539977111736e-05
0.50800001621246	-2.6477693266301e-05
0.51200002431870	-7.3636021900978e-06
0.51599997282028	-7.7596034480945e-07
0.51999998092651	-3.1001912406243e-06
0.52399998903275	-1.7978037927452e-05
0.52799999713898	-4.2295587358042e-05
0.53200000524521	-8.0723841964292e-05
0.53600001335144	-0.00012912600501901
0.54000002145767	-0.00018798453724728
0.54400002956390	-0.00025896708333000
0.54799997806549	-0.00034252404694752
0.55199998617172	-0.00043664913825011
0.55599999427795	-0.00054181254511379
0.56000000238419	-0.00065916104494023
0.56400001049042	-0.00078812417318545
0.56800001859665	-0.00092664945478513
0.57200002670288	-0.0010774286865369
0.57599997520447	-0.0012398762538717
0.57999998331070	-0.0014114706853984
0.58399999141693	-0.0015932790686592
0.58799999952316	-0.0017862929703646
0.59200000762939	-0.0019869925310066
0.59600001573563	-0.0021995021760131
0.60000002384186	-0.0024207011151531
0.60399997234344	-0.0026501475511277
0.60799998044968	-0.0028899011610984
0.61199998855591	-0.0031358419570300
0.61599999666214	-0.0033894993375994
0.62000000476837	-0.0036519521070795
0.62400001287460	-0.0039200868120148
0.62800002098083	-0.0041944323889995
0.63200002908707	-0.0044744543613328
0.63599997758865	-0.0047601506167432
0.63999998569489	-0.0050509873099596
0.64399999380112	-0.0053459198326997
0.64800000190735	-0.0056444150199528
0.65200001001358	-0.0059454291149298
0.65600001811981	-0.0062509181530369
0.66000002622604	-0.0065568165371610
0.66399997472763	-0.0068640139306772
0.66799998283386	-0.0071720201038272
0.67199999094009	-0.0074807450486792
0.67599999904633	-0.0077890987430317
0.68000000715256	-0.0080959679838168
0.68400001525879	-0.0084001929068953
0.68800002336502	-0.0087033220795192
0.69199997186661	-0.0090041697741506
0.69599997997284	-0.0093011302987530
0.69999998807907	-0.0095930375633869
0.70399999618530	-0.0098807855861093
0.70800000429153	-0.010163760038057
0.71200001239777	-0.010439745183467
0.71600002050400	-0.010710113218035
0.72000002861023	-0.010973805941007
0.72399997711182	-0.011230517816998
0.72799998521805	-0.011478046472004
0.73199999332428	-0.011717800528415
0.73600000143051	-0.011948008545448
0.74000000953674	-0.012169539063454
0.74400001764297	-0.012381172487313
0.74800002574921	-0.012583162136101
0.75199997425079	-0.012773772530272
0.75599998235703	-0.012953782577914
0.75999999046326	-0.013121424540830
0.76399999856949	-0.013278485221291
0.76800000667572	-0.013423214632945
0.77200001478195	-0.013557416341477
0.77600002288818	-0.013678694682286
0.77999997138977	-0.013787424743187
0.78399997949600	-0.013883154622622
0.78799998760223	-0.013967239209740
0.79199999570847	-0.014037878643761
0.79600000381470	-0.014096259874361
0.80000001192093	-0.014141588387406
0.80400002002716	-0.014174532312082
0.80800002813339	-0.014195355731547
0.81199997663498	-0.014203729614157
0.81599998474121	-0.014199826412348
0.81999999284744	-0.014183362098868
0.82400000095367	-0.014155539690439
0.82800000905991	-0.014117021596929
0.83200001716614	-0.014066524537661
0.83600002527237	-0.014006247339706
0.83999997377396	-0.013934812282434
0.84399998188019	-0.013854463013048
0.84799998998642	-0.013763364011057
0.85199999809265	-0.013664759534863
0.85600000619888	-0.013556746612462
0.86000001430511	-0.013441071164936
0.86400002241135	-0.013319443972912
0.86799997091293	-0.013190630520974
0.87199997901917	-0.013055709133910
0.87599998712540	-0.012916524540611
0.87999999523163	-0.012772125290537
0.88400000333786	-0.012624347547549
0.88800001144409	-0.012475405821260
0.89200001955032	-0.012323035870553
0.89600002765656	-0.012169444140800
0.89999997615814	-0.012015885506855
0.90399998426437	-0.011863169745307
0.90799999237061	-0.011712481926260
0.91200000047684	-0.011563179151757
0.91600000858307	-0.011417382089343
0.92000001668930	-0.011276045781665
0.92400002479553	-0.011139869975503
0.92799997329712	-0.011010650732091
0.93199998140335	-0.010888334174203
0.93599998950958	-0.010773077684440
0.93999999761581	-0.010667302027802
0.94400000572205	-0.010572891621813
0.94800001382828	-0.010487989056610
0.95200002193451	-0.010415208516440
0.95599997043610	-0.010355897364755
0.95999997854233	-0.010309697570489
0.96399998664856	-0.010277855556671
0.96799999475479	-0.010262082525676
0.97200000286102	-0.010262220230593
0.97600001096725	-0.010279884533606
0.98000001907349	-0.010314851280965
0.98400002717972	-0.010369669658003
0.98799997568130	-0.010443754585134
0.99199998378754	-0.010538090738413
0.99599999189377	-0.010652666666843
1.0000000000000	-0.010789896792875
1.0039999485016	-0.010949344713357
1.0080000162125	-0.011132145892994
1.0119999647141	-0.011337443257905
1.0160000324249	-0.011567090235742
1.0199999809265	-0.011822160580119
1.0240000486374	-0.012099738206601
1.0279999971390	-0.012404747508580
1.0319999456406	-0.012734716755646
1.0360000133514	-0.013090733944425
1.0399999618530	-0.013472375765858
1.0440000295639	-0.013880513741594
1.0479999780655	-0.014316108214573
1.0520000457764	-0.014777087126275
1.0559999942780	-0.015264861606590
1.0599999427795	-0.015779149991583
1.0640000104904	-0.016320368801364
1.0679999589920	-0.016887951427825
1.0720000267029	-0.017481776948546
1.0759999752045	-0.018101841272150
1.0800000429153	-0.018746401580234
1.0839999914169	-0.019416464343073
1.0880000591278	-0.020112829537463
1.0920000076294	-0.020832545609944
1.0959999561310	-0.021576673974909
1.1000000238419	-0.022343546534990
1.1039999723434	-0.023134369478951
1.1080000400543	-0.023947435419347
1.1119999885559	-0.024780425144470
1.1160000562668	-0.025636019774781
1.1200000047684	-0.026511455929117
1.1239999532700	-0.027405685774338
1.1280000209808	-0.028317883070827
1.1319999694824	-0.029248735927177
1.1360000371933	-0.030195212868881
1.1399999856949	-0.031156838470915
1.1440000534058	-0.032134038218563
1.1480000019073	-0.033124762440886
1.1519999504089	-0.034127554476700
1.1560000181198	-0.035141427635405
1.1599999666214	-0.036166311265880
1.1640000343323	-0.037200634253629
1.1679999828339	-0.038242100389102
1.1720000505447	-0.039292103276905
1.1759999990463	-0.040346661044924
1.1799999475479	-0.041406932410500
1.1840000152588	-0.042470479216748
1.1879999637604	-0.043535964491459
1.1920000314713	-0.044603424417835
1.1959999799728	-0.045671243362875
1.2000000476837	-0.046738195609998
1.2039999961853	-0.047802739841614
1.2079999446869	-0.048864608341659
1.2120000123978	-0.049921361161498
1.2159999608994	-0.050974569241579
1.2200000286102	-0.052021405548526
1.2239999771118	-0.053060679784751
1.2280000448227	-0.054091978096824
1.2319999933243	-0.055114386600821
1.2359999418259	-0.056127747312163
1.2400000095367	-0.057130542717304
1.2439999580383	-0.058122601064437
1.2480000257492	-0.059102175636269
1.2519999742508	-0.060069453067402
1.2560000419617	-0.061023434417030
1.2599999904633	-0.061964951908989
1.2640000581741	-0.062892397964328
1.2680000066757	-0.063804728206349
1.2719999551773	-0.064703495234923
1.2760000228882	-0.065587623602545
1.2799999713898	-0.066456307070165
1.2840000391006	-0.067310265934449
1.2879999876022	-0.068149435902791
1.2920000553131	-0.068974397623454
1.2960000038147	-0.069784568025028
1.2999999523163	-0.070580005777331
1.3040000200272	-0.071362493791884
1.3079999685287	-0.072130227378953
1.3120000362396	-0.072885326051275
1.3159999847412	-0.073629714417865
1.3200000524521	-0.074361320972557
1.3240000009537	-0.075082883073669
1.3279999494553	-0.075793824012094
1.3320000171661	-0.076496402993543
1.3359999656677	-0.077191224078744
1.3400000333786	-0.077879019124751
1.3439999818802	-0.078560606336895
1.3480000495911	-0.079240441403925
1.3519999980927	-0.079916058376477
1.3559999465942	-0.080591127240137
1.3600000143051	-0.081266271346632
1.3639999628067	-0.081943625151995
1.3680000305176	-0.082624094091264
1.3719999790192	-0.083310825582529
1.3760000467300	-0.084003876765010
1.3799999952316	-0.084708430242749
1.3839999437332	-0.085422024164766
1.3880000114441	-0.086150161232663
1.3919999599457	-0.086893620915093
1.3960000276566	-0.087654690465751
1.3999999761581	-0.088435619145330
1.4040000438690	-0.089239125866559
1.4079999923706	-0.090066139612236
1.4119999408722	-0.090920497531494
1.4160000085831	-0.091802748281001
1.4199999570847	-0.092717862210390
1.4240000247955	-0.093666230562329
1.4279999732971	-0.094651390313401
1.4320000410080	-0.095675573145137
1.4359999895096	-0.096740648250417
1.4400000572205	-0.097849061064879
1.4440000057220	-0.099003593359611
1.4479999542236	-0.10020666911613
1.4520000219345	-0.10146185357532
1.4559999704361	-0.10276968831795
1.4600000381470	-0.10413339716323
1.4639999866486	-0.10555629290276
1.4680000543594	-0.10704007235895
1.4720000028610	-0.10858513547788
1.4759999513626	-0.11019644075148
1.4800000190735	-0.11187622210851
1.4839999675751	-0.11362607667360
1.4880000352859	-0.11544626407214
1.4919999837875	-0.11734190410003
1.4960000514984	-0.11931274402710
1.5000000000000	-0.12136357460633
1.5039999485016	-0.12349314937066
1.5080000162125	-0.12570334416456
1.5119999647141	-0.12799826298024
1.5160000324249	-0.13037985372432
1.5199999809265	-0.13284779434994
1.5240000486374	-0.13540314152678
1.5279999971390	-0.13804954952313
1.5319999456406	-0.14078613454731
1.5360000133514	-0.14361600287933
1.5399999618530	-0.14654047263621
1.5440000295639	-0.14955927634806
1.5479999780655	-0.15267333768765
1.5520000457764	-0.15588429927648
1.5559999942780	-0.15919347461764
1.5599999427795	-0.16260016635292
1.5640000104904	-0.16610533416376
1.5679999589920	-0.16971157823002
1.5720000267029	-0.17341479371750
1.5759999752045	-0.17721877345706
1.5800000429153	-0.18112383752924
1.5839999914169	-0.18512925020491
1.5880000591278	-0.18923308071880
1.5920000076294	-0.19343905653380
1.5959999561310	-0.19774335764877
1.6000000238419	-0.20214779348071
1.6039999723434	-0.20665193965032
1.6080000400543	-0.21125523381202
1.6119999885559	-0.21595491045106
1.6160000562668	-0.22075466315712
1.6200000047684	-0.22564950721945
1.6239999532700	-0.23064152163258
1.6280000209808	-0.23572861547889
1.6319999694824	-0.24091049016662
1.6360000371933	-0.24618549434322
1.6399999856949	-0.25155400978171
1.6440000534058	-0.25701360769205
1.6480000019073	-0.26256419660682
1.6519999504089	-0.26820472819691
1.6560000181198	-0.27393289948732
1.6599999666214	-0.27975019769402
1.6640000343323	-0.28565202641078
1.6679999828339	-0.29163956773500
1.6720000505447	-0.29771203448633
1.6759999990463	-0.30386645435307
1.6799999475479	-0.31010334465000
1.6840000152588	-0.31642200330917
1.6879999637604	-0.32282133288521
1.6920000314713	-0.32929808189320
1.6959999799728	-0.33585433743297
1.7000000476837	-0.34248725960341
1.7039999961853	-0.34919810315716
1.7079999446869	-0.35598637336248
1.7120000123978	-0.36284904721311
1.7159999608994	-0.36978782888889
1.7200000286102	-0.37680199761134
1.7239999771118	-0.38389266523466
1.7280000448227	-0.39105750571609
1.7319999933243	-0.39829903321246
1.7359999418259	-0.40561543725313
1.7400000095367	-0.41300791952297
1.7439999580383	-0.42047955522539
1.7480000257492	-0.42802820691493
1.7519999742508	-0.43565538421511
1.7560000419617	-0.44336478969537
1.7599999904633	-0.45115653222906
1.7640000581741	-0.45903182261857
1.7680000066757	-0.46699283235765
1.7719999551773	-0.47504242694120
1.7760000228882	-0.48318257010762
1.7799999713898	-0.49141824799355
1.7840000391006	-0.49974947873080
1.7879999876022	-0.50818063095725
1.7920000553131	-0.51671622622487
1.7960000038147	-0.52536018211450
1.7999999523163	-0.53411674201605
1.8040000200272	-0.54298763692104
1.8079999685287	-0.55198146087417
1.8120000362396	-0.56110156375685
1.8159999847412	-0.57035429006542
1.8200000524521	-0.57974425089443
1.8240000009537	-0.58927901746914
1.8279999494553	-0.59896330557813
1.8320000171661	-0.60880668377769
1.8359999656677	-0.61881395212918
1.8400000333786	-0.62899325923949
1.8439999818802	-0.63935254207296
1.8480000495911	-0.64990048061245
1.8519999980927	-0.66064398493571
1.8559999465942	-0.67159378625164
1.8600000143051	-0.68275834592716
1.8639999628067	-0.69414675019518
1.8680000305176	-0.70577041085758
1.8719999790192	-0.71763686420940
1.8760000467300	-0.72975920698712
1.8799999952316	-0.74214811356887
1.8839999437332	-0.75481306132764
1.8880000114441	-0.76776634256994
1.8919999599457	-0.78102165749850
1.8960000276566	-0.79458856209476
1.8999999761581	-0.80848142797063
1.9040000438690	-0.82271202934586
1.9079999923706	-0.83729475971956
1.9119999408722	-0.85224178114555
1.9160000085831	-0.86756837638434
1.9199999570847	-0.88328675279445
1.9240000247955	-0.89941331860544
1.9279999732971	-0.91596219050318
1.9320000410080	-0.93294566915906
1.9359999895096	-0.95038272250077
1.9400000572205	-0.96828690819371
1.9440000057220	-0.98667479891140
1.9479999542236	-1.0055636130452
1.9520000219345	-1.0249663254654
1.9559999704361	-1.0449023430446
1.9600000381470	-1.0653875026979
1.9639999866486	-1.0864387380718
1.9680000543594	-1.1080748859852
1.9720000028610	-1.1303108509334
1.9759999513626	-1.1531661417678
1.9800000190735	-1.1766610183430
1.9839999675751	-1.2008092709385
1.9880000352859	-1.2256325197812
1.9919999837875	-1.2511492241267
1.9960000514984	-1.2773774045205
2.0000000000000	-1.3043363872116
2.0039999485016	-1.3320457932841
2.0079998970032	-1.3605263375761
2.0120000839233	-1.3897950279459
2.0160000324249	-1.4198761396225
2.0199999809265	-1.4507871407473
2.0239999294281	-1.4825489405238
2.0280001163483	-1.5151828884674
2.0320000648499	-1.5487088987357
2.0360000133514	-1.5831507117439
2.0399999618530	-1.6185265552175
2.0439999103546	-1.6548607460065
2.0480000972748	-1.6921739023644
2.0520000457764	-1.7304876409789
2.0559999942780	-1.7698257445279
2.0599999427795	-1.8102094659384
2.0639998912811	-1.8516631113771
2.0680000782013	-1.8942083726108
2.0720000267029	-1.9378709023042
2.0759999752045	-1.9826714032808
2.0799999237061	-2.0286356460927
2.0840001106262	-2.0757880785357
2.0880000591278	-2.1241518911246
2.0920000076294	-2.1737543687955
2.0959999561310	-2.2246173293558
2.0999999046326	-2.2767691291348
2.1040000915527	-2.3302352228927
2.1080000400543	-2.3850383365443
2.1119999885559	-2.4412101127479
2.1159999370575	-2.4987745706760
2.1199998855591	-2.5577593711670
2.1240000724792	-2.6181918492059
2.1280000209808	-2.6801024741881
2.1319999694824	-2.7435166279676
2.1359999179840	-2.8084646567737
2.1400001049042	-2.8749772005954
2.1440000534058	-2.9430811911334
2.1480000019073	-3.0128105497912
2.1519999504089	-3.0841943900833
2.1559998989105	-3.1572640005741
2.1600000858307	-3.2320523081884
2.1640000343323	-3.3085914963723
2.1679999828339	-3.3869148439854
2.1719999313354	-3.4670546954731
